 Ir 20.nm/Si 30000.nm/Si at 0.5deg, P=0.
 Photon energy (eV), Reflectivity, Transmission into substrate
   100.000  0.981784  0.000000
   109.910  0.980652  0.000000
   119.820  0.977231  0.000000
   129.730  0.971141  0.000000
   139.640  0.963618  0.000000
   149.550  0.955202  0.000000
   159.459  0.947607  0.000000
   169.369  0.941398  0.000000
   179.279  0.936159  0.000000
   189.189  0.930890  0.000000
   199.099  0.927017  0.000000
   209.009  0.923842  0.000000
   218.919  0.921595  0.000000
   228.829  0.920071  0.000000
   238.739  0.918889  0.000000
   248.649  0.918900  0.000000
   258.559  0.918669  0.000000
   268.468  0.917969  0.000000
   278.378  0.917209  0.000000
   288.288  0.916432  0.000000
   298.198  0.915649  0.000000
   308.108  0.914652  0.000000
   318.018  0.913402  0.000000
   327.928  0.912223  0.000000
   337.838  0.911237  0.000000
   347.748  0.910404  0.000000
   357.658  0.909827  0.000000
   367.568  0.909512  0.000000
   377.477  0.909051  0.000000
   387.387  0.908549  0.000000
   397.297  0.908072  0.000000
   407.207  0.907642  0.000000
   417.117  0.907362  0.000000
   427.027  0.907383  0.000000
   436.937  0.907413  0.000000
   446.847  0.907243  0.000000
   456.757  0.907009  0.000000
   466.667  0.906736  0.000000
   476.577  0.906444  0.000000
   486.487  0.906145  0.000000
   496.396  0.905850  0.000000
   506.306  0.905566  0.000000
   516.216  0.905304  0.000000
   526.126  0.905073  0.000000
   536.036  0.904900  0.000000
   545.946  0.904825  0.000000
   555.856  0.904985  0.000000
   565.766  0.905440  0.000000
   575.676  0.905873  0.000000
   585.586  0.906111  0.000000
   595.495  0.906259  0.000000
   605.405  0.906346  0.000000
   615.315  0.906389  0.000000
   625.225  0.906396  0.000000
   635.135  0.906375  0.000000
   645.045  0.906332  0.000000
   654.955  0.906269  0.000000
   664.865  0.906191  0.000000
   674.775  0.906101  0.000000
   684.685  0.906000  0.000000
   694.595  0.905889  0.000000
   704.505  0.905772  0.000000
   714.414  0.905650  0.000000
   724.324  0.905523  0.000000
   734.234  0.905394  0.000000
   744.144  0.905264  0.000000
   754.054  0.905133  0.000000
   763.964  0.905008  0.000000
   773.874  0.904881  0.000000
   783.784  0.904763  0.000000
   793.694  0.904654  0.000000
   803.604  0.904552  0.000000
   813.514  0.904467  0.000000
   823.423  0.904398  0.000000
   833.333  0.904361  0.000000
   843.243  0.904354  0.000000
   853.153  0.904442  0.000000
   863.063  0.904893  0.000000
   872.973  0.906556  0.000000
   882.883  0.907627  0.000000
   892.793  0.907079  0.000000
   902.703  0.906945  0.000000
   912.613  0.906879  0.000000
   922.523  0.906850  0.000000
   932.432  0.906903  0.000000
   942.342  0.906958  0.000000
   952.252  0.907009  0.000000
   962.162  0.907059  0.000000
   972.072  0.907105  0.000000
   981.982  0.907146  0.000000
   991.892  0.907185  0.000000
   1001.80  0.907226  0.000000
   1011.71  0.907271  0.000000
   1021.62  0.907343  0.000000
   1031.53  0.907431  0.000000
   1041.44  0.907498  0.000000
   1051.35  0.907560  0.000000
   1061.26  0.907613  0.000000
   1071.17  0.907656  0.000000
   1081.08  0.907693  0.000000
   1090.99  0.907717  0.000000
   1100.90  0.907741  0.000000
   1110.81  0.907748  0.000000
   1120.72  0.907755  0.000000
   1130.63  0.907749  0.000000
   1140.54  0.907745  0.000000
   1150.45  0.907727  0.000000
   1160.36  0.907711  0.000000
   1170.27  0.907688  0.000000
   1180.18  0.907656  0.000000
   1190.09  0.907622  0.000000
   1200.00  0.907585  0.000000
   1209.91  0.907538  0.000000
   1219.82  0.907491  0.000000
   1229.73  0.907443  0.000000
   1239.64  0.907396  0.000000
   1249.55  0.907349  0.000000
   1259.46  0.907299  0.000000
   1269.37  0.907256  0.000000
   1279.28  0.907205  0.000000
   1289.19  0.907154  0.000000
   1299.10  0.907099  0.000000
   1309.01  0.907033  0.000000
   1318.92  0.906958  0.000000
   1328.83  0.906883  0.000000
   1338.74  0.906800  0.000000
   1348.65  0.906702  0.000000
   1358.56  0.906605  0.000000
   1368.47  0.906499  0.000000
   1378.38  0.906396  0.000000
   1388.29  0.906272  0.000000
   1398.20  0.906156  0.000000
   1408.11  0.906024  0.000000
   1418.02  0.905886  0.000000
   1427.93  0.905743  0.000000
   1437.84  0.905593  0.000000
   1447.75  0.905439  0.000000
   1457.66  0.905278  0.000000
   1467.57  0.905111  0.000000
   1477.48  0.904932  0.000000
   1487.39  0.904760  0.000000
   1497.30  0.904568  0.000000
   1507.21  0.904381  0.000000
   1517.12  0.904199  0.000000
   1527.03  0.903983  0.000000
   1536.94  0.903778  0.000000
   1546.85  0.903545  0.000000
   1556.76  0.903308  0.000000
   1566.67  0.903068  0.000000
   1576.58  0.902804  0.000000
   1586.49  0.902537  0.000000
   1596.40  0.902248  0.000000
   1606.31  0.901950  0.000000
   1616.22  0.901651  0.000000
   1626.13  0.901317  0.000000
   1636.04  0.900974  0.000000
   1645.95  0.900628  0.000000
   1655.86  0.900245  0.000000
   1665.77  0.899864  0.000000
   1675.68  0.899452  0.000000
   1685.59  0.899023  0.000000
   1695.50  0.898578  0.000000
   1705.41  0.898100  0.000000
   1715.32  0.897606  0.000000
   1725.23  0.897116  0.000000
   1735.14  0.896559  0.000000
   1745.05  0.896016  0.000000
   1754.95  0.895445  0.000000
   1764.86  0.894809  0.000000
   1774.77  0.894159  0.000000
   1784.68  0.893472  0.000000
   1794.59  0.892712  0.000000
   1804.50  0.891934  0.000000
   1814.41  0.891107  0.000000
   1824.32  0.890175  0.000000
   1834.23  0.889233  0.000000
   1844.14  0.888187  0.000000
   1854.05  0.887017  0.000000
   1863.96  0.885839  0.000000
   1873.87  0.884507  0.000000
   1883.78  0.882990  0.000000
   1893.69  0.881462  0.000000
   1903.60  0.879705  0.000000
   1913.51  0.877665  0.000000
   1923.42  0.875548  0.000000
   1933.33  0.873136  0.000000
   1943.24  0.870120  0.000000
   1953.15  0.867004  0.000000
   1963.06  0.863436  0.000000
   1972.97  0.858234  0.000000
   1982.88  0.852774  0.000000
   1992.79  0.846936  0.000000
   2002.70  0.833473  0.000000
   2012.61  0.817970  0.000000
   2022.52  0.800142  0.000000
   2032.43  0.574344  0.000000
   2042.34  0.383873  0.000000
   2052.25  0.541610  0.000000
   2062.16  0.637632  0.000000
   2072.07  0.645586  0.000000
   2081.98  0.653401  0.000000
   2091.89  0.656194  0.000000
   2101.80  0.582585  0.000000
   2111.71  0.497697  0.000000
   2121.62  0.570044  0.000000
   2131.53  0.630303  0.000000
   2141.44  0.645748  0.000000
   2151.35  0.660744  0.000000
   2161.26  0.673726  0.000000
   2171.17  0.680081  0.000000
   2181.08  0.686377  0.000000
   2190.99  0.692554  0.000000
   2200.90  0.697293  0.000000
   2210.81  0.701350  0.000000
   2220.72  0.705331  0.000000
   2230.63  0.709200  0.000000
   2240.54  0.712121  0.000000
   2250.45  0.715027  0.000000
   2260.36  0.717885  0.000000
   2270.27  0.720442  0.000000
   2280.18  0.722664  0.000000
   2290.09  0.724864  0.000000
   2300.00  0.727041  0.000000
   2309.91  0.728892  0.000000
   2319.82  0.730615  0.000000
   2329.73  0.732310  0.000000
   2339.64  0.734011  0.000000
   2349.55  0.735376  0.000000
   2359.46  0.736708  0.000000
   2369.37  0.738041  0.000000
   2379.28  0.739340  0.000000
   2389.19  0.740327  0.000000
   2399.10  0.741345  0.000000
   2409.01  0.742360  0.000000
   2418.92  0.743300  0.000000
   2428.83  0.743950  0.000000
   2438.74  0.744626  0.000000
   2448.65  0.745294  0.000000
   2458.56  0.745808  0.000000
   2468.47  0.746017  0.000000
   2478.38  0.746210  0.000000
   2488.29  0.746423  0.000000
   2498.20  0.746131  0.000000
   2508.11  0.744893  0.000000
   2518.02  0.743639  0.000000
   2527.93  0.742370  0.000000
   2537.84  0.735102  0.000000
   2547.75  0.708659  0.000000
   2557.66  0.692690  0.000000
   2567.57  0.711761  0.000000
   2577.48  0.727499  0.000000
   2587.39  0.730058  0.000000
   2597.30  0.732578  0.000000
   2607.21  0.735058  0.000000
   2617.12  0.737536  0.000000
   2627.03  0.739098  0.000000
   2636.94  0.740618  0.000000
   2646.85  0.742136  0.000000
   2656.76  0.743612  0.000000
   2666.67  0.744842  0.000000
   2676.58  0.745987  0.000000
   2686.49  0.747086  0.000000
   2696.40  0.748181  0.000000
   2706.31  0.749228  0.000000
   2716.22  0.750106  0.000000
   2726.13  0.750976  0.000000
   2736.04  0.751839  0.000000
   2745.95  0.752736  0.000000
   2755.86  0.753457  0.000000
   2765.77  0.754128  0.000000
   2775.68  0.754851  0.000000
   2785.59  0.755545  0.000000
   2795.50  0.756143  0.000000
   2805.41  0.756644  0.000000
   2815.32  0.757133  0.000000
   2825.23  0.757611  0.000000
   2835.14  0.758119  0.000000
   2845.05  0.758308  0.000000
   2854.96  0.758415  0.000000
   2864.86  0.758570  0.000000
   2874.77  0.758709  0.000000
   2884.68  0.757785  0.000000
   2894.59  0.752977  0.000000
   2904.50  0.748067  0.000000
   2914.41  0.740256  0.000000
   2924.32  0.747625  0.000000
   2934.23  0.751657  0.000000
   2944.14  0.752780  0.000000
   2954.05  0.753896  0.000000
   2963.96  0.755006  0.000000
   2973.87  0.756110  0.000000
   2983.78  0.756920  0.000000
   2993.69  0.757625  0.000000
   3003.60  0.758322  0.000000
   3013.51  0.759009  0.000000
   3023.42  0.759687  0.000000
   3033.33  0.760258  0.000000
   3043.24  0.760769  0.000000
   3053.15  0.761270  0.000000
   3063.06  0.761809  0.000000
   3072.97  0.762289  0.000000
   3082.88  0.762657  0.000000
   3092.79  0.763014  0.000000
   3102.70  0.763409  0.000000
   3112.61  0.763742  0.000000
   3122.52  0.764113  0.000000
   3132.43  0.763079  0.000000
   3142.34  0.761952  0.000000
   3152.25  0.760782  0.000000
   3162.16  0.759623  0.000000
   3172.07  0.758421  0.000000
   3181.98  0.753891  0.000000
   3191.89  0.755919  0.000000
   3201.80  0.757937  0.000000
   3211.71  0.759944  0.000000
   3221.62  0.761886  0.000000
   3231.53  0.762895  0.000000
   3241.44  0.763406  0.000000
   3251.35  0.763964  0.000000
   3261.26  0.764456  0.000000
   3271.17  0.764995  0.000000
   3281.08  0.765472  0.000000
   3290.99  0.765941  0.000000
   3300.90  0.766345  0.000000
   3310.81  0.766795  0.000000
   3320.72  0.767207  0.000000
   3330.63  0.767637  0.000000
   3340.54  0.768005  0.000000
   3350.45  0.768421  0.000000
   3360.36  0.768768  0.000000
   3370.27  0.769163  0.000000
   3380.18  0.769548  0.000000
   3390.09  0.769868  0.000000
   3400.00  0.770238  0.000000
   3409.91  0.770538  0.000000
   3419.82  0.770887  0.000000
   3429.73  0.771226  0.000000
   3439.64  0.771555  0.000000
   3449.55  0.771877  0.000000
   3459.46  0.772188  0.000000
   3469.37  0.772489  0.000000
   3479.28  0.772841  0.000000
   3489.19  0.773122  0.000000
   3499.10  0.773456  0.000000
   3509.01  0.773721  0.000000
   3518.92  0.774037  0.000000
   3528.83  0.774282  0.000000
   3538.74  0.774578  0.000000
   3548.65  0.774863  0.000000
   3558.56  0.775140  0.000000
   3568.47  0.775407  0.000000
   3578.38  0.775664  0.000000
   3588.29  0.775974  0.000000
   3598.20  0.776210  0.000000
   3608.11  0.776500  0.000000
   3618.02  0.776720  0.000000
   3627.93  0.776994  0.000000
   3637.84  0.777259  0.000000
   3647.75  0.777513  0.000000
   3657.66  0.777757  0.000000
   3667.57  0.777991  0.000000
   3677.48  0.778217  0.000000
   3687.39  0.778432  0.000000
   3697.30  0.778705  0.000000
   3707.21  0.778900  0.000000
   3717.12  0.779153  0.000000
   3727.03  0.779395  0.000000
   3736.94  0.779634  0.000000
   3746.85  0.779862  0.000000
   3756.76  0.780080  0.000000
   3766.67  0.780289  0.000000
   3776.58  0.780486  0.000000
   3786.49  0.780674  0.000000
   3796.40  0.780924  0.000000
   3806.31  0.781093  0.000000
   3816.22  0.781324  0.000000
   3826.13  0.781544  0.000000
   3836.04  0.781755  0.000000
   3845.95  0.781956  0.000000
   3855.86  0.782149  0.000000
   3865.77  0.782333  0.000000
   3875.68  0.782506  0.000000
   3885.59  0.782744  0.000000
   3895.50  0.782898  0.000000
   3905.41  0.783117  0.000000
   3915.32  0.783252  0.000000
   3925.23  0.783454  0.000000
   3935.14  0.783647  0.000000
   3945.05  0.783830  0.000000
   3954.96  0.784003  0.000000
   3964.86  0.784167  0.000000
   3974.77  0.784399  0.000000
   3984.68  0.784547  0.000000
   3994.59  0.784686  0.000000
   4004.50  0.784893  0.000000
   4014.41  0.785091  0.000000
   4024.32  0.785200  0.000000
   4034.23  0.785379  0.000000
   4044.14  0.785549  0.000000
   4054.05  0.785709  0.000000
   4063.96  0.785861  0.000000
   4073.87  0.786002  0.000000
   4083.78  0.786215  0.000000
   4093.69  0.786338  0.000000
   4103.60  0.786534  0.000000
   4113.51  0.786643  0.000000
   4123.42  0.786824  0.000000
   4133.33  0.786997  0.000000
   4143.24  0.787161  0.000000
   4153.15  0.787232  0.000000
   4163.06  0.787461  0.000000
   4172.97  0.787598  0.000000
   4182.88  0.787728  0.000000
   4192.79  0.787848  0.000000
   4202.70  0.787958  0.000000
   4212.61  0.788146  0.000000
   4222.52  0.788239  0.000000
   4232.43  0.788409  0.000000
   4242.34  0.788571  0.000000
   4252.25  0.788726  0.000000
   4262.16  0.788784  0.000000
   4272.07  0.788922  0.000000
   4281.98  0.789050  0.000000
   4291.89  0.789258  0.000000
   4301.80  0.789369  0.000000
   4311.71  0.789472  0.000000
   4321.62  0.789567  0.000000
   4331.53  0.789744  0.000000
   4341.44  0.789821  0.000000
   4351.35  0.789980  0.000000
   4361.26  0.790132  0.000000
   4371.17  0.790182  0.000000
   4381.08  0.790318  0.000000
   4390.99  0.790446  0.000000
   4400.90  0.790566  0.000000
   4410.81  0.790677  0.000000
   4420.72  0.790780  0.000000
   4430.63  0.790874  0.000000
   4440.54  0.791055  0.000000
   4450.45  0.791133  0.000000
   4460.36  0.791203  0.000000
   4470.27  0.791361  0.000000
   4480.18  0.791414  0.000000
   4490.09  0.791556  0.000000
   4500.00  0.791690  0.000000
   4509.91  0.791816  0.000000
   4519.82  0.791835  0.000000
   4529.73  0.791996  0.000000
   4539.64  0.792099  0.000000
   4549.55  0.792193  0.000000
   4559.46  0.792280  0.000000
   4569.37  0.792460  0.000000
   4579.28  0.792530  0.000000
   4589.19  0.792591  0.000000
   4599.10  0.792750  0.000000
   4609.01  0.792797  0.000000
   4618.92  0.792940  0.000000
   4628.83  0.792971  0.000000
   4638.74  0.793098  0.000000
   4648.65  0.793218  0.000000
   4658.56  0.793223  0.000000
   4668.47  0.793327  0.000000
   4678.38  0.793424  0.000000
   4688.29  0.793514  0.000000
   4698.20  0.793595  0.000000
   4708.11  0.793668  0.000000
   4718.02  0.793734  0.000000
   4727.93  0.793900  0.000000
   4737.84  0.793950  0.000000
   4747.75  0.793993  0.000000
   4757.66  0.794139  0.000000
   4767.57  0.794166  0.000000
   4777.48  0.794185  0.000000
   4787.39  0.794309  0.000000
   4797.30  0.794424  0.000000
   4807.21  0.794420  0.000000
   4817.12  0.794520  0.000000
   4827.03  0.794615  0.000000
   4836.94  0.794702  0.000000
   4846.85  0.794782  0.000000
   4856.76  0.794854  0.000000
   4866.67  0.794919  0.000000
   4876.58  0.794976  0.000000
   4886.49  0.795026  0.000000
   4896.40  0.795068  0.000000
   4906.31  0.795104  0.000000
   4916.22  0.795250  0.000000
   4926.13  0.795271  0.000000
   4936.04  0.795284  0.000000
   4945.95  0.795409  0.000000
   4955.86  0.795407  0.000000
   4965.77  0.795518  0.000000
   4975.68  0.795622  0.000000
   4985.59  0.795598  0.000000
   4995.50  0.795689  0.000000
   5005.41  0.795772  0.000000
   5015.32  0.795725  0.000000
   5025.23  0.795794  0.000000
   5035.14  0.795856  0.000000
   5045.05  0.795911  0.000000
   5054.96  0.795958  0.000000
   5064.87  0.796000  0.000000
   5074.77  0.796034  0.000000
   5084.69  0.796189  0.000000
   5094.59  0.796209  0.000000
   5104.50  0.796222  0.000000
   5114.41  0.796227  0.000000
   5124.32  0.796355  0.000000
   5134.23  0.796346  0.000000
   5144.14  0.796462  0.000000
   5154.05  0.796439  0.000000
   5163.96  0.796541  0.000000
   5173.87  0.796504  0.000000
   5183.78  0.796593  0.000000
   5193.69  0.796540  0.000000
   5203.60  0.796615  0.000000
   5213.51  0.796684  0.000000
   5223.42  0.796746  0.000000
   5233.33  0.796665  0.000000
   5243.24  0.796714  0.000000
   5253.15  0.796756  0.000000
   5263.06  0.796791  0.000000
   5272.97  0.796820  0.000000
   5282.88  0.796841  0.000000
   5292.79  0.796856  0.000000
   5302.70  0.797004  0.000000
   5312.61  0.797006  0.000000
   5322.52  0.797001  0.000000
   5332.43  0.796989  0.000000
   5342.34  0.796969  0.000000
   5352.25  0.797087  0.000000
   5362.16  0.797054  0.000000
   5372.07  0.797159  0.000000
   5381.98  0.797112  0.000000
   5391.89  0.797204  0.000000
   5401.80  0.797144  0.000000
   5411.71  0.797225  0.000000
   5421.62  0.797150  0.000000
   5431.53  0.797218  0.000000
   5441.44  0.797279  0.000000
   5451.35  0.797183  0.000000
   5461.26  0.797231  0.000000
   5471.17  0.797273  0.000000
   5481.08  0.797308  0.000000
   5490.99  0.797338  0.000000
   5500.90  0.797361  0.000000
   5510.81  0.797223  0.000000
   5520.72  0.797232  0.000000
   5530.63  0.797235  0.000000
   5540.54  0.797388  0.000000
   5550.45  0.797378  0.000000
   5560.36  0.797362  0.000000
   5570.27  0.797340  0.000000
   5580.18  0.797310  0.000000
   5590.09  0.797275  0.000000
   5600.00  0.797393  0.000000
   5609.91  0.797345  0.000000
   5619.82  0.797289  0.000000
   5629.73  0.797390  0.000000
   5639.64  0.797321  0.000000
   5649.55  0.797245  0.000000
   5659.46  0.797328  0.000000
   5669.37  0.797240  0.000000
   5679.28  0.797312  0.000000
   5689.19  0.797210  0.000000
   5699.10  0.797269  0.000000
   5709.01  0.797322  0.000000
   5718.92  0.797200  0.000000
   5728.83  0.797241  0.000000
   5738.74  0.797276  0.000000
   5748.65  0.797133  0.000000
   5758.56  0.797156  0.000000
   5768.47  0.797173  0.000000
   5778.38  0.797184  0.000000
   5788.29  0.797188  0.000000
   5798.20  0.797187  0.000000
   5808.11  0.797180  0.000000
   5818.02  0.797166  0.000000
   5827.93  0.797146  0.000000
   5837.84  0.797119  0.000000
   5847.75  0.797088  0.000000
   5857.66  0.797050  0.000000
   5867.57  0.797006  0.000000
   5877.48  0.796955  0.000000
   5887.39  0.796898  0.000000
   5897.30  0.796834  0.000000
   5907.21  0.796763  0.000000
   5917.12  0.796872  0.000000
   5927.03  0.796789  0.000000
   5936.94  0.796700  0.000000
   5946.85  0.796792  0.000000
   5956.76  0.796691  0.000000
   5966.67  0.796583  0.000000
   5976.58  0.796658  0.000000
   5986.49  0.796537  0.000000
   5996.40  0.796601  0.000000
   6006.31  0.796467  0.000000
   6016.22  0.796520  0.000000
   6026.13  0.796372  0.000000
   6036.04  0.796414  0.000000
   6045.95  0.796254  0.000000
   6055.86  0.796284  0.000000
   6065.77  0.796309  0.000000
   6075.68  0.796129  0.000000
   6085.59  0.796141  0.000000
   6095.50  0.796148  0.000000
   6105.41  0.795948  0.000000
   6115.32  0.795943  0.000000
   6125.23  0.795932  0.000000
   6135.14  0.795915  0.000000
   6145.05  0.795894  0.000000
   6154.96  0.795866  0.000000
   6164.87  0.795625  0.000000
   6174.77  0.795585  0.000000
   6184.69  0.795539  0.000000
   6194.59  0.795486  0.000000
   6204.50  0.795429  0.000000
   6214.41  0.795364  0.000000
   6224.32  0.795294  0.000000
   6234.23  0.795218  0.000000
   6244.14  0.795135  0.000000
   6254.05  0.795263  0.000000
   6263.96  0.795169  0.000000
   6273.87  0.795069  0.000000
   6283.78  0.794963  0.000000
   6293.69  0.794850  0.000000
   6303.60  0.794730  0.000000
   6313.51  0.794827  0.000000
   6323.42  0.794696  0.000000
   6333.33  0.794558  0.000000
   6343.24  0.794414  0.000000
   6353.15  0.794490  0.000000
   6363.06  0.794333  0.000000
   6372.97  0.794170  0.000000
   6382.88  0.794230  0.000000
   6392.79  0.794053  0.000000
   6402.70  0.794103  0.000000
   6412.61  0.793913  0.000000
   6422.52  0.793952  0.000000
   6432.43  0.793750  0.000000
   6442.34  0.793778  0.000000
