Si Rho=2.33, Sig=0.nm, P=0., 1.3deg
 Photon energy (eV), Reflectivity
   1000.00  0.826662
   1006.01  0.826012
   1012.01  0.825320
   1018.02  0.824588
   1024.02  0.823805
   1030.03  0.822978
   1036.04  0.822100
   1042.04  0.821164
   1048.05  0.820176
   1054.05  0.819128
   1060.06  0.818013
   1066.07  0.816838
   1072.07  0.815586
   1078.08  0.814259
   1084.08  0.812856
   1090.09  0.811247
   1096.10  0.809508
   1102.10  0.807675
   1108.11  0.805670
   1114.11  0.803541
   1120.12  0.801298
   1126.13  0.798935
   1132.13  0.796440
   1138.14  0.793800
   1144.14  0.791000
   1150.15  0.788027
   1156.16  0.784867
   1162.16  0.781494
   1168.17  0.777892
   1174.17  0.774040
   1180.18  0.769904
   1186.19  0.765456
   1192.19  0.760659
   1198.20  0.755466
   1204.20  0.749822
   1210.21  0.743675
   1216.22  0.736947
   1222.22  0.729538
   1228.23  0.721360
   1234.23  0.712285
   1240.24  0.702124
   1246.25  0.690719
   1252.25  0.677843
   1258.26  0.663189
   1264.26  0.646454
   1270.27  0.627317
   1276.28  0.605444
   1282.28  0.580597
   1288.29  0.552912
   1294.29  0.522909
   1300.30  0.491449
   1306.31  0.459839
   1312.31  0.429239
   1318.32  0.400394
   1324.32  0.373686
   1330.33  0.349299
   1336.34  0.327147
   1342.34  0.306987
   1348.35  0.288683
   1354.35  0.272050
   1360.36  0.256878
   1366.37  0.242958
   1372.37  0.230207
   1378.38  0.218490
   1384.38  0.207658
   1390.39  0.197624
   1396.40  0.188333
   1402.40  0.179707
   1408.41  0.171636
   1414.41  0.164103
   1420.42  0.157068
   1426.43  0.150481
   1432.43  0.144261
   1438.44  0.138421
   1444.44  0.132931
   1450.45  0.127751
   1456.46  0.122831
   1462.46  0.118187
   1468.47  0.113798
   1474.47  0.109631
   1480.48  0.105655
   1486.49  0.101886
   1492.49  9.830824E-02
   1498.50  9.489495E-02
   1504.50  9.162387E-02
   1510.51  8.851198E-02
   1516.52  8.554872E-02
   1522.52  8.271065E-02
   1528.53  7.997537E-02
   1534.53  7.736611E-02
   1540.54  7.487503E-02
   1546.55  7.248489E-02
   1552.55  7.016724E-02
   1558.56  6.795134E-02
   1564.56  6.583125E-02
   1570.57  6.379869E-02
   1576.58  6.181077E-02
   1582.58  5.990690E-02
   1588.59  5.808216E-02
   1594.59  5.633247E-02
   1600.60  5.461505E-02
   1606.61  5.296033E-02
   1612.61  5.137246E-02
   1618.62  4.984790E-02
   1624.62  4.835587E-02
   1630.63  4.690001E-02
   1636.64  4.550169E-02
   1642.64  4.415809E-02
   1648.65  4.285609E-02
   1654.65  4.155718E-02
   1660.66  4.030905E-02
   1666.67  3.910920E-02
   1672.67  3.795528E-02
   1678.68  3.679466E-02
   1684.68  3.566151E-02
   1690.69  3.457241E-02
   1696.70  3.352512E-02
   1702.70  3.249798E-02
   1708.71  3.144515E-02
   1714.71  3.043420E-02
   1720.72  2.946301E-02
   1726.73  2.852972E-02
   1732.73  2.755528E-02
   1738.74  2.657969E-02
   1744.74  2.564471E-02
   1750.75  2.474834E-02
   1756.76  2.388863E-02
   1762.76  2.287735E-02
   1768.77  2.191155E-02
   1774.77  2.099069E-02
   1780.78  2.011231E-02
   1786.79  1.916585E-02
   1792.79  1.797107E-02
   1798.80  1.684977E-02
   1804.80  1.579705E-02
   1810.81  1.480810E-02
   1816.82  1.219952E-02
   1822.82  7.269192E-03
   1828.83  3.927094E-03
   1834.83  1.785069E-03
   1840.84  1.142266E-02
   1846.85  1.235998E-02
   1852.85  1.334598E-02
   1858.86  1.438081E-02
   1864.86  1.500968E-02
   1870.87  1.554348E-02
   1876.88  1.608473E-02
   1882.88  1.663301E-02
   1888.89  1.718804E-02
   1894.90  1.743352E-02
   1900.90  1.759960E-02
   1906.91  1.776365E-02
   1912.91  1.792559E-02
   1918.92  1.808536E-02
   1924.93  1.814353E-02
   1930.93  1.815988E-02
   1936.94  1.817471E-02
   1942.94  1.818806E-02
   1948.95  1.819992E-02
   1954.96  1.817228E-02
   1960.96  1.811144E-02
   1966.97  1.805020E-02
   1972.97  1.798860E-02
   1978.98  1.792660E-02
   1984.99  1.785249E-02
   1990.99  1.774873E-02
   1997.00  1.764545E-02
   2003.00  1.754266E-02
   2009.01  1.744036E-02
   2015.02  1.733857E-02
   2021.02  1.721223E-02
   2027.03  1.708542E-02
   2033.03  1.695969E-02
   2039.04  1.683506E-02
   2045.05  1.671152E-02
   2051.05  1.657968E-02
   2057.06  1.644044E-02
   2063.06  1.630270E-02
   2069.07  1.616641E-02
   2075.08  1.603159E-02
   2081.08  1.589825E-02
   2087.09  1.575303E-02
   2093.09  1.560951E-02
   2099.10  1.546776E-02
   2105.10  1.532770E-02
   2111.11  1.518931E-02
   2117.12  1.504861E-02
   2123.12  1.490362E-02
   2129.13  1.476050E-02
   2135.14  1.461921E-02
   2141.14  1.447974E-02
   2147.15  1.434204E-02
   2153.15  1.420074E-02
   2159.16  1.405906E-02
   2165.17  1.391928E-02
   2171.17  1.378134E-02
   2177.18  1.364525E-02
   2183.18  1.351096E-02
   2189.19  1.337317E-02
   2195.20  1.323675E-02
   2201.20  1.310219E-02
   2207.21  1.296948E-02
   2213.21  1.283859E-02
   2219.22  1.270930E-02
   2225.23  1.257742E-02
   2231.23  1.244735E-02
   2237.24  1.231911E-02
   2243.24  1.219264E-02
   2249.25  1.206791E-02
   2255.26  1.194468E-02
   2261.26  1.181980E-02
   2267.27  1.169664E-02
   2273.27  1.157519E-02
   2279.28  1.145546E-02
   2285.29  1.133738E-02
   2291.29  1.122091E-02
   2297.30  1.110336E-02
   2303.30  1.098741E-02
   2309.31  1.087307E-02
   2315.32  1.076033E-02
   2321.32  1.064916E-02
   2327.33  1.053952E-02
   2333.33  1.042947E-02
   2339.34  1.032052E-02
   2345.35  1.021309E-02
   2351.35  1.010715E-02
   2357.36  1.000269E-02
   2363.36  9.899650E-03
   2369.37  9.797025E-03
   2375.38  9.694956E-03
   2381.38  9.594315E-03
   2387.39  9.495068E-03
   2393.39  9.397185E-03
   2399.40  9.300647E-03
   2405.41  9.205158E-03
   2411.41  9.109696E-03
   2417.42  9.015558E-03
   2423.42  8.922708E-03
   2429.43  8.831135E-03
   2435.44  8.740805E-03
   2441.44  8.651704E-03
   2447.45  8.562935E-03
   2453.45  8.474990E-03
   2459.46  8.388245E-03
   2465.47  8.302678E-03
   2471.47  8.218262E-03
   2477.48  8.134990E-03
   2483.48  8.052723E-03
   2489.49  7.970615E-03
   2495.50  7.889632E-03
   2501.50  7.809740E-03
   2507.51  7.730908E-03
   2513.51  7.653131E-03
   2519.52  7.576393E-03
   2525.53  7.500307E-03
   2531.53  7.424737E-03
   2537.54  7.350184E-03
   2543.54  7.276610E-03
   2549.55  7.204021E-03
   2555.56  7.132378E-03
   2561.56  7.061679E-03
   2567.57  6.991443E-03
   2573.57  6.921865E-03
   2579.58  6.853201E-03
   2585.59  6.785436E-03
   2591.59  6.718547E-03
   2597.60  6.652531E-03
   2603.60  6.587378E-03
   2609.61  6.522589E-03
   2615.62  6.458471E-03
   2621.62  6.395178E-03
   2627.63  6.332709E-03
   2633.63  6.271039E-03
   2639.64  6.210164E-03
   2645.65  6.150056E-03
   2651.65  6.090362E-03
   2657.66  6.031286E-03
   2663.66  5.972963E-03
   2669.67  5.915384E-03
   2675.68  5.858532E-03
   2681.68  5.802396E-03
   2687.69  5.746964E-03
   2693.69  5.691975E-03
   2699.70  5.637498E-03
   2705.71  5.583708E-03
   2711.71  5.530583E-03
   2717.72  5.478116E-03
   2723.72  5.426315E-03
   2729.73  5.375144E-03
   2735.74  5.324487E-03
   2741.74  5.274208E-03
   2747.75  5.224555E-03
   2753.75  5.175510E-03
   2759.76  5.127074E-03
   2765.77  5.079218E-03
   2771.77  5.031956E-03
   2777.78  4.985270E-03
   2783.78  4.938836E-03
   2789.79  4.892959E-03
   2795.80  4.847645E-03
   2801.80  4.802878E-03
   2807.81  4.758650E-03
   2813.81  4.714944E-03
   2819.82  4.671768E-03
   2825.83  4.628979E-03
   2831.83  4.586579E-03
   2837.84  4.544676E-03
   2843.84  4.503269E-03
   2849.85  4.462362E-03
   2855.86  4.421941E-03
   2861.86  4.381986E-03
   2867.87  4.342505E-03
   2873.87  4.303287E-03
   2879.88  4.264505E-03
   2885.89  4.226179E-03
   2891.89  4.188300E-03
   2897.90  4.150863E-03
   2903.90  4.113862E-03
   2909.91  4.077285E-03
   2915.92  4.041099E-03
   2921.92  4.005168E-03
   2927.93  3.969651E-03
   2933.93  3.934543E-03
   2939.94  3.899838E-03
   2945.95  3.865531E-03
   2951.95  3.831614E-03
   2957.96  3.798083E-03
   2963.96  3.764889E-03
   2969.97  3.731960E-03
   2975.98  3.699414E-03
   2981.98  3.667230E-03
   2987.99  3.635408E-03
   2993.99  3.603948E-03
   3000.00  3.572838E-03
   3006.01  3.542077E-03
   3012.01  3.511612E-03
   3018.02  3.481395E-03
   3024.02  3.451518E-03
   3030.03  3.421967E-03
   3036.04  3.392745E-03
   3042.04  3.363852E-03
   3048.05  3.335272E-03
   3054.05  3.307006E-03
   3060.06  3.279018E-03
   3066.07  3.251250E-03
   3072.07  3.223783E-03
   3078.08  3.196621E-03
   3084.08  3.169748E-03
   3090.09  3.143171E-03
   3096.10  3.116878E-03
   3102.10  3.090873E-03
   3108.11  3.065148E-03
   3114.11  3.039596E-03
   3120.12  3.014316E-03
   3126.13  2.989309E-03
   3132.13  2.964569E-03
   3138.14  2.940094E-03
   3144.14  2.915875E-03
   3150.15  2.891922E-03
   3156.16  2.868216E-03
   3162.16  2.844706E-03
   3168.17  2.821415E-03
   3174.17  2.798362E-03
   3180.18  2.775563E-03
   3186.19  2.752993E-03
   3192.19  2.730663E-03
   3198.20  2.708562E-03
   3204.20  2.686697E-03
   3210.21  2.665049E-03
   3216.22  2.643568E-03
   3222.22  2.622308E-03
   3228.23  2.601268E-03
   3234.23  2.580447E-03
   3240.24  2.559841E-03
   3246.25  2.539441E-03
   3252.25  2.519255E-03
   3258.26  2.499274E-03
   3264.26  2.479467E-03
   3270.27  2.459831E-03
   3276.28  2.440393E-03
   3282.28  2.421155E-03
   3288.29  2.402107E-03
   3294.29  2.383256E-03
   3300.30  2.364591E-03
   3306.31  2.346121E-03
   3312.31  2.327829E-03
   3318.32  2.309680E-03
   3324.32  2.291695E-03
   3330.33  2.273893E-03
   3336.34  2.256261E-03
   3342.34  2.238809E-03
   3348.35  2.221530E-03
   3354.35  2.204424E-03
   3360.36  2.187482E-03
   3366.37  2.170707E-03
   3372.37  2.154065E-03
   3378.38  2.137578E-03
   3384.38  2.121252E-03
   3390.39  2.105087E-03
   3396.40  2.089075E-03
   3402.40  2.073226E-03
   3408.41  2.057524E-03
   3414.41  2.041979E-03
   3420.42  2.026586E-03
   3426.43  2.011311E-03
   3432.43  1.996166E-03
   3438.44  1.981174E-03
   3444.44  1.966326E-03
   3450.45  1.951616E-03
   3456.46  1.937051E-03
   3462.46  1.922623E-03
   3468.47  1.908330E-03
   3474.47  1.894179E-03
   3480.48  1.880142E-03
   3486.49  1.866219E-03
   3492.49  1.852430E-03
   3498.50  1.838772E-03
   3504.50  1.825243E-03
   3510.51  1.811840E-03
   3516.52  1.798564E-03
   3522.52  1.785411E-03
   3528.53  1.772381E-03
   3534.53  1.759467E-03
   3540.54  1.746651E-03
   3546.55  1.733955E-03
   3552.55  1.721374E-03
   3558.56  1.708915E-03
   3564.56  1.696568E-03
   3570.57  1.684338E-03
   3576.58  1.672215E-03
   3582.58  1.660203E-03
   3588.59  1.648305E-03
   3594.59  1.636498E-03
   3600.60  1.624792E-03
   3606.61  1.613190E-03
   3612.61  1.601695E-03
   3618.62  1.590303E-03
   3624.62  1.579012E-03
   3630.63  1.567826E-03
   3636.64  1.556742E-03
   3642.64  1.545760E-03
   3648.65  1.534873E-03
   3654.65  1.524065E-03
   3660.66  1.513353E-03
   3666.67  1.502736E-03
   3672.67  1.492215E-03
   3678.68  1.481790E-03
   3684.68  1.471452E-03
   3690.69  1.461210E-03
   3696.70  1.451058E-03
   3702.70  1.440995E-03
   3708.71  1.431022E-03
   3714.71  1.421117E-03
   3720.72  1.411300E-03
   3726.73  1.401567E-03
   3732.73  1.391925E-03
   3738.74  1.382362E-03
   3744.74  1.372885E-03
   3750.75  1.363489E-03
   3756.76  1.354178E-03
   3762.76  1.344944E-03
   3768.77  1.335791E-03
   3774.77  1.326704E-03
   3780.78  1.317693E-03
   3786.79  1.308763E-03
   3792.79  1.299905E-03
   3798.80  1.291129E-03
   3804.80  1.282422E-03
   3810.81  1.273796E-03
   3816.82  1.265240E-03
   3822.82  1.256758E-03
   3828.83  1.248349E-03
   3834.83  1.239999E-03
   3840.84  1.231719E-03
   3846.85  1.223511E-03
   3852.85  1.215372E-03
   3858.86  1.207300E-03
   3864.86  1.199297E-03
   3870.87  1.191360E-03
   3876.88  1.183494E-03
   3882.88  1.175690E-03
   3888.89  1.167953E-03
   3894.90  1.160271E-03
   3900.90  1.152650E-03
   3906.91  1.145092E-03
   3912.91  1.137597E-03
   3918.92  1.130164E-03
   3924.93  1.122793E-03
   3930.93  1.115481E-03
   3936.94  1.108233E-03
   3942.94  1.101042E-03
   3948.95  1.093910E-03
   3954.96  1.086837E-03
   3960.96  1.079816E-03
   3966.97  1.072850E-03
   3972.97  1.065941E-03
   3978.98  1.059090E-03
   3984.99  1.052292E-03
   3990.99  1.045549E-03
   3997.00  1.038867E-03
   4003.00  1.032233E-03
   4009.01  1.025656E-03
   4015.02  1.019129E-03
   4021.02  1.012653E-03
   4027.03  1.006225E-03
   4033.03  9.998494E-04
   4039.04  9.935235E-04
   4045.05  9.872469E-04
   4051.05  9.810245E-04
   4057.06  9.748483E-04
   4063.06  9.687233E-04
   4069.07  9.626461E-04
   4075.08  9.566170E-04
   4081.08  9.506379E-04
   4087.09  9.446978E-04
   4093.09  9.388048E-04
   4099.10  9.329583E-04
   4105.11  9.271557E-04
   4111.11  9.213992E-04
   4117.12  9.156910E-04
   4123.12  9.100261E-04
   4129.13  9.044063E-04
   4135.14  8.988261E-04
   4141.14  8.932932E-04
   4147.15  8.878050E-04
   4153.15  8.823505E-04
   4159.16  8.769402E-04
   4165.17  8.715707E-04
   4171.17  8.662399E-04
   4177.18  8.609545E-04
   4183.18  8.557072E-04
   4189.19  8.505026E-04
   4195.20  8.453354E-04
   4201.20  8.402104E-04
   4207.21  8.351248E-04
   4213.21  8.300760E-04
   4219.22  8.250636E-04
   4225.23  8.200876E-04
   4231.23  8.151525E-04
   4237.24  8.102509E-04
   4243.24  8.053898E-04
   4249.25  8.005641E-04
   4255.26  7.957739E-04
   4261.26  7.910233E-04
   4267.27  7.863053E-04
   4273.27  7.816243E-04
   4279.28  7.769801E-04
   4285.29  7.723676E-04
   4291.29  7.677844E-04
   4297.30  7.632397E-04
   4303.30  7.587264E-04
   4309.31  7.542463E-04
   4315.32  7.498020E-04
   4321.32  7.453884E-04
   4327.33  7.410099E-04
   4333.33  7.366620E-04
   4339.34  7.323462E-04
   4345.35  7.280632E-04
   4351.35  7.238120E-04
   4357.36  7.195905E-04
   4363.36  7.153962E-04
   4369.37  7.112334E-04
   4375.38  7.071021E-04
   4381.38  7.029996E-04
   4387.39  6.989286E-04
   4393.39  6.948861E-04
   4399.40  6.908766E-04
   4405.41  6.868931E-04
   4411.41  6.829399E-04
   4417.42  6.790125E-04
   4423.42  6.751175E-04
   4429.43  6.712457E-04
   4435.44  6.674037E-04
   4441.44  6.635891E-04
   4447.45  6.598015E-04
   4453.45  6.560413E-04
   4459.46  6.523076E-04
   4465.47  6.486012E-04
   4471.47  6.449212E-04
   4477.48  6.412677E-04
   4483.48  6.376405E-04
   4489.49  6.340395E-04
   4495.50  6.304645E-04
   4501.50  6.269092E-04
   4507.51  6.233818E-04
   4513.51  6.198777E-04
   4519.52  6.163993E-04
   4525.53  6.129441E-04
   4531.53  6.095162E-04
   4537.54  6.061094E-04
   4543.54  6.027273E-04
   4549.55  5.993703E-04
   4555.56  5.960359E-04
   4561.56  5.927259E-04
   4567.57  5.894385E-04
   4573.57  5.861711E-04
   4579.58  5.829279E-04
   4585.59  5.797069E-04
   4591.59  5.765097E-04
   4597.60  5.733324E-04
   4603.60  5.701766E-04
   4609.61  5.670446E-04
   4615.62  5.639339E-04
   4621.62  5.608466E-04
   4627.63  5.577785E-04
   4633.63  5.547313E-04
   4639.64  5.517052E-04
   4645.65  5.487002E-04
   4651.65  5.457138E-04
   4657.66  5.427482E-04
   4663.66  5.398029E-04
   4669.67  5.368763E-04
   4675.68  5.339719E-04
   4681.68  5.310858E-04
   4687.69  5.282218E-04
   4693.69  5.253761E-04
   4699.70  5.225482E-04
   4705.71  5.197400E-04
   4711.71  5.169517E-04
   4717.72  5.141812E-04
   4723.72  5.114281E-04
   4729.73  5.086947E-04
   4735.74  5.059784E-04
   4741.74  5.032797E-04
   4747.75  5.006019E-04
   4753.75  4.979394E-04
   4759.76  4.952958E-04
   4765.77  4.926713E-04
   4771.77  4.900616E-04
   4777.78  4.874707E-04
   4783.78  4.848964E-04
   4789.79  4.823407E-04
   4795.80  4.797996E-04
   4801.80  4.772751E-04
   4807.81  4.747667E-04
   4813.81  4.722748E-04
   4819.82  4.697991E-04
   4825.83  4.673414E-04
   4831.83  4.648979E-04
   4837.84  4.624722E-04
   4843.84  4.600606E-04
   4849.85  4.576666E-04
   4855.86  4.552884E-04
   4861.86  4.529239E-04
   4867.87  4.505751E-04
   4873.87  4.482436E-04
   4879.88  4.459258E-04
   4885.89  4.436215E-04
   4891.89  4.413342E-04
   4897.90  4.390622E-04
   4903.90  4.368035E-04
   4909.91  4.345598E-04
   4915.92  4.323312E-04
   4921.92  4.301157E-04
   4927.93  4.279150E-04
   4933.93  4.257274E-04
   4939.94  4.235562E-04
   4945.95  4.213979E-04
   4951.95  4.192524E-04
   4957.96  4.171213E-04
   4963.96  4.150030E-04
   4969.97  4.128974E-04
   4975.98  4.108060E-04
   4981.98  4.087271E-04
   4987.99  4.066624E-04
   4993.99  4.046118E-04
   5000.00  4.025718E-04
   5006.01  4.005458E-04
   5012.01  3.985336E-04
   5018.02  3.965337E-04
   5024.02  3.945456E-04
   5030.03  3.925699E-04
   5036.04  3.906058E-04
   5042.04  3.886554E-04
   5048.05  3.867169E-04
   5054.05  3.847885E-04
   5060.06  3.828736E-04
   5066.07  3.809703E-04
   5072.07  3.790786E-04
   5078.08  3.772001E-04
   5084.08  3.753332E-04
   5090.09  3.734761E-04
   5096.10  3.716320E-04
   5102.10  3.697993E-04
   5108.11  3.679779E-04
   5114.11  3.661678E-04
   5120.12  3.643671E-04
   5126.13  3.625777E-04
   5132.13  3.608010E-04
   5138.14  3.590354E-04
   5144.14  3.572807E-04
   5150.15  3.555352E-04
   5156.16  3.538007E-04
   5162.16  3.520772E-04
   5168.17  3.503644E-04
   5174.17  3.486622E-04
   5180.18  3.469708E-04
   5186.19  3.452885E-04
   5192.19  3.436167E-04
   5198.20  3.419555E-04
   5204.20  3.403033E-04
   5210.21  3.386614E-04
   5216.22  3.370300E-04
   5222.22  3.354074E-04
   5228.23  3.337952E-04
   5234.23  3.321916E-04
   5240.24  3.305983E-04
   5246.25  3.290152E-04
   5252.25  3.274422E-04
   5258.26  3.258762E-04
   5264.26  3.243218E-04
   5270.27  3.227759E-04
   5276.28  3.212399E-04
   5282.28  3.197123E-04
   5288.29  3.181931E-04
   5294.29  3.166853E-04
   5300.30  3.151842E-04
   5306.31  3.136928E-04
   5312.31  3.122097E-04
   5318.32  3.107362E-04
   5324.32  3.092708E-04
   5330.33  3.078137E-04
   5336.34  3.063674E-04
   5342.34  3.049277E-04
   5348.35  3.034975E-04
   5354.35  3.020752E-04
   5360.36  3.006608E-04
   5366.37  2.992543E-04
   5372.37  2.978571E-04
   5378.38  2.964677E-04
   5384.38  2.950860E-04
   5390.39  2.937136E-04
   5396.40  2.923489E-04
   5402.40  2.909918E-04
   5408.41  2.896424E-04
   5414.41  2.883004E-04
   5420.42  2.869676E-04
   5426.43  2.856409E-04
   5432.43  2.843231E-04
   5438.44  2.830126E-04
   5444.44  2.817097E-04
   5450.45  2.804142E-04
   5456.46  2.791260E-04
   5462.46  2.778452E-04
   5468.47  2.765717E-04
   5474.47  2.753054E-04
   5480.48  2.740449E-04
   5486.49  2.727932E-04
   5492.49  2.715484E-04
   5498.50  2.703110E-04
   5504.50  2.690807E-04
   5510.51  2.678573E-04
   5516.52  2.666412E-04
   5522.52  2.654319E-04
   5528.53  2.642297E-04
   5534.53  2.630331E-04
   5540.54  2.618448E-04
   5546.55  2.606621E-04
   5552.55  2.594861E-04
   5558.56  2.583171E-04
   5564.56  2.571549E-04
   5570.57  2.559994E-04
   5576.58  2.548494E-04
   5582.58  2.537062E-04
   5588.59  2.525697E-04
   5594.59  2.514398E-04
   5600.60  2.503166E-04
   5606.61  2.491987E-04
   5612.61  2.480873E-04
   5618.62  2.469826E-04
   5624.62  2.458844E-04
   5630.63  2.447914E-04
   5636.64  2.437036E-04
   5642.64  2.426235E-04
   5648.65  2.415487E-04
   5654.65  2.404788E-04
   5660.66  2.394167E-04
   5666.67  2.383597E-04
   5672.67  2.373077E-04
   5678.68  2.362620E-04
   5684.69  2.352226E-04
   5690.69  2.341895E-04
   5696.70  2.331600E-04
   5702.70  2.321380E-04
   5708.71  2.311209E-04
   5714.71  2.301100E-04
   5720.72  2.291040E-04
   5726.73  2.281041E-04
   5732.73  2.271090E-04
   5738.74  2.261200E-04
   5744.75  2.251356E-04
   5750.75  2.241575E-04
   5756.76  2.231840E-04
   5762.76  2.222164E-04
   5768.77  2.212537E-04
   5774.77  2.202955E-04
   5780.78  2.193433E-04
   5786.79  2.183970E-04
   5792.79  2.174552E-04
   5798.80  2.165181E-04
   5804.81  2.155856E-04
   5810.81  2.146588E-04
   5816.82  2.137366E-04
   5822.82  2.128201E-04
   5828.83  2.119082E-04
   5834.83  2.110007E-04
   5840.84  2.100990E-04
   5846.85  2.092004E-04
   5852.85  2.083075E-04
   5858.86  2.074202E-04
