Si Rho=2.33, Sig=0.nm, P=0., 0.8deg
 Photon energy (eV), Reflectivity
   1000.00  0.916989
   1006.01  0.917202
   1012.01  0.917414
   1018.02  0.917618
   1024.02  0.917819
   1030.03  0.918015
   1036.04  0.918205
   1042.04  0.918389
   1048.05  0.918570
   1054.05  0.918744
   1060.06  0.918913
   1066.07  0.919077
   1072.07  0.919237
   1078.08  0.919389
   1084.08  0.919537
   1090.09  0.919625
   1096.10  0.919692
   1102.10  0.919756
   1108.11  0.919780
   1114.11  0.919793
   1120.12  0.919803
   1126.13  0.919812
   1132.13  0.919822
   1138.14  0.919826
   1144.14  0.919826
   1150.15  0.919824
   1156.16  0.919820
   1162.16  0.919810
   1168.17  0.919798
   1174.17  0.919783
   1180.18  0.919765
   1186.19  0.919743
   1192.19  0.919717
   1198.20  0.919689
   1204.20  0.919658
   1210.21  0.919624
   1216.22  0.919584
   1222.22  0.919542
   1228.23  0.919496
   1234.23  0.919447
   1240.24  0.919392
   1246.25  0.919333
   1252.25  0.919270
   1258.26  0.919202
   1264.26  0.919131
   1270.27  0.919054
   1276.28  0.918973
   1282.28  0.918884
   1288.29  0.918795
   1294.29  0.918700
   1300.30  0.918603
   1306.31  0.918501
   1312.31  0.918396
   1318.32  0.918287
   1324.32  0.918167
   1330.33  0.918045
   1336.34  0.917918
   1342.34  0.917782
   1348.35  0.917643
   1354.35  0.917500
   1360.36  0.917347
   1366.37  0.917188
   1372.37  0.917021
   1378.38  0.916851
   1384.38  0.916672
   1390.39  0.916482
   1396.40  0.916293
   1402.40  0.916095
   1408.41  0.915885
   1414.41  0.915669
   1420.42  0.915448
   1426.43  0.915220
   1432.43  0.914976
   1438.44  0.914726
   1444.44  0.914470
   1450.45  0.914205
   1456.46  0.913921
   1462.46  0.913632
   1468.47  0.913336
   1474.47  0.913026
   1480.48  0.912698
   1486.49  0.912363
   1492.49  0.912018
   1498.50  0.911668
   1504.50  0.911314
   1510.51  0.910951
   1516.52  0.910578
   1522.52  0.910188
   1528.53  0.909771
   1534.53  0.909343
   1540.54  0.908903
   1546.55  0.908445
   1552.55  0.907952
   1558.56  0.907443
   1564.56  0.906922
   1570.57  0.906383
   1576.58  0.905791
   1582.58  0.905181
   1588.59  0.904554
   1594.59  0.903910
   1600.60  0.903202
   1606.61  0.902463
   1612.61  0.901702
   1618.62  0.900918
   1624.62  0.900070
   1630.63  0.899158
   1636.64  0.898216
   1642.64  0.897245
   1648.65  0.896221
   1654.65  0.895068
   1660.66  0.893873
   1666.67  0.892634
   1672.67  0.891349
   1678.68  0.889884
   1684.68  0.888312
   1690.69  0.886672
   1696.70  0.884957
   1702.70  0.883100
   1708.71  0.880919
   1714.71  0.878622
   1720.72  0.876198
   1726.73  0.873635
   1732.73  0.870556
   1738.74  0.867055
   1744.74  0.863290
   1750.75  0.859226
   1756.76  0.854821
   1762.76  0.848436
   1768.77  0.841263
   1774.77  0.833147
   1780.78  0.823858
   1786.79  0.811238
   1792.79  0.789239
   1798.80  0.759390
   1804.80  0.716171
   1810.81  0.649601
   1816.82  0.367558
   1822.82  0.119339
   1828.83  4.695988E-02
   1834.83  1.724808E-02
   1840.84  0.136309
   1846.85  0.152144
   1852.85  0.169179
   1858.86  0.187345
   1864.86  0.199140
   1870.87  0.209522
   1876.88  0.220136
   1882.88  0.230957
   1888.89  0.241958
   1894.90  0.247971
   1900.90  0.252734
   1906.91  0.257506
   1912.91  0.262283
   1918.92  0.267064
   1924.93  0.270185
   1930.93  0.272622
   1936.94  0.275042
   1942.94  0.277446
   1948.95  0.279834
   1954.96  0.281541
   1960.96  0.282660
   1966.97  0.283757
   1972.97  0.284832
   1978.98  0.285883
   1984.99  0.286698
   1990.99  0.286943
   1997.00  0.287164
   2003.00  0.287358
   2009.01  0.287528
   2015.02  0.287671
   2021.02  0.287300
   2027.03  0.286871
   2033.03  0.286415
   2039.04  0.285931
   2045.05  0.285420
   2051.05  0.284685
   2057.06  0.283738
   2063.06  0.282763
   2069.07  0.281759
   2075.08  0.280728
   2081.08  0.279669
   2087.09  0.278310
   2093.09  0.276922
   2099.10  0.275506
   2105.10  0.274063
   2111.11  0.272591
   2117.12  0.271000
   2123.12  0.269237
   2129.13  0.267449
   2135.14  0.265635
   2141.14  0.263796
   2147.15  0.261934
   2153.15  0.259914
   2159.16  0.257814
   2165.17  0.255694
   2171.17  0.253553
   2177.18  0.251393
   2183.18  0.249216
   2189.19  0.246882
   2195.20  0.244520
   2201.20  0.242145
   2207.21  0.239758
   2213.21  0.237360
   2219.22  0.234948
   2225.23  0.232407
   2231.23  0.229860
   2237.24  0.227310
   2243.24  0.224758
   2249.25  0.222206
   2255.26  0.219649
   2261.26  0.216999
   2267.27  0.214355
   2273.27  0.211719
   2279.28  0.209091
   2285.29  0.206475
   2291.29  0.203870
   2297.30  0.201201
   2303.30  0.198547
   2309.31  0.195910
   2315.32  0.193293
   2321.32  0.190697
   2327.33  0.188122
   2333.33  0.185513
   2339.34  0.182917
   2345.35  0.180348
   2351.35  0.177806
   2357.36  0.175292
   2363.36  0.172807
   2369.37  0.170323
   2375.38  0.167846
   2381.38  0.165401
   2387.39  0.162989
   2393.39  0.160609
   2399.40  0.158264
   2405.41  0.155944
   2411.41  0.153622
   2417.42  0.151336
   2423.42  0.149085
   2429.43  0.146870
   2435.44  0.144690
   2441.44  0.142544
   2447.45  0.140411
   2453.45  0.138303
   2459.46  0.136230
   2465.47  0.134193
   2471.47  0.132191
   2477.48  0.130224
   2483.48  0.128289
   2489.49  0.126363
   2495.50  0.124472
   2501.50  0.122616
   2507.51  0.120792
   2513.51  0.119002
   2519.52  0.117244
   2525.53  0.115510
   2531.53  0.113795
   2537.54  0.112113
   2543.54  0.110461
   2549.55  0.108840
   2555.56  0.107250
   2561.56  0.105689
   2567.57  0.104146
   2573.57  0.102626
   2579.58  0.101135
   2585.59  9.967223E-02
   2591.59  9.823653E-02
   2597.60  9.682779E-02
   2603.60  9.544530E-02
   2609.61  9.407831E-02
   2615.62  9.273323E-02
   2621.62  9.141342E-02
   2627.63  9.011839E-02
   2633.63  8.884755E-02
   2639.64  8.760044E-02
   2645.65  8.637646E-02
   2651.65  8.516773E-02
   2657.66  8.397853E-02
   2663.66  8.281145E-02
   2669.67  8.166599E-02
   2675.68  8.054172E-02
   2681.68  7.943814E-02
   2687.69  7.835471E-02
   2693.69  7.728613E-02
   2699.70  7.623357E-02
   2705.71  7.520033E-02
   2711.71  7.418577E-02
   2717.72  7.318977E-02
   2723.72  7.221172E-02
   2729.73  7.125124E-02
   2735.74  7.030559E-02
   2741.74  6.937234E-02
   2747.75  6.845578E-02
   2753.75  6.755557E-02
   2759.76  6.667139E-02
   2765.77  6.580284E-02
   2771.77  6.494960E-02
   2777.78  6.411136E-02
   2783.78  6.328215E-02
   2789.79  6.246727E-02
   2795.80  6.166673E-02
   2801.80  6.088005E-02
   2807.81  6.010698E-02
   2813.81  5.934715E-02
   2819.82  5.860041E-02
   2825.83  5.786412E-02
   2831.83  5.713815E-02
   2837.84  5.642460E-02
   2843.84  5.572309E-02
   2849.85  5.503336E-02
   2855.86  5.435533E-02
   2861.86  5.368858E-02
   2867.87  5.303292E-02
   2873.87  5.238471E-02
   2879.88  5.174689E-02
   2885.89  5.111963E-02
   2891.89  5.050266E-02
   2897.90  4.989583E-02
   2903.90  4.929887E-02
   2909.91  4.871157E-02
   2915.92  4.813321E-02
   2921.92  4.756159E-02
   2927.93  4.699918E-02
   2933.93  4.644573E-02
   2939.94  4.590117E-02
   2945.95  4.536521E-02
   2951.95  4.483771E-02
   2957.96  4.431860E-02
   2963.96  4.380686E-02
   2969.97  4.330150E-02
   2975.98  4.280409E-02
   2981.98  4.231438E-02
   2987.99  4.183229E-02
   2993.99  4.135758E-02
   3000.00  4.089020E-02
   3006.01  4.042997E-02
   3012.01  3.997601E-02
   3018.02  3.952760E-02
   3024.02  3.908605E-02
   3030.03  3.865109E-02
   3036.04  3.822271E-02
   3042.04  3.780077E-02
   3048.05  3.738507E-02
   3054.05  3.697555E-02
   3060.06  3.657168E-02
   3066.07  3.617248E-02
   3072.07  3.577913E-02
   3078.08  3.539157E-02
   3084.08  3.500967E-02
   3090.09  3.463330E-02
   3096.10  3.426240E-02
   3102.10  3.389687E-02
   3108.11  3.353659E-02
   3114.11  3.318002E-02
   3120.12  3.282854E-02
   3126.13  3.248208E-02
   3132.13  3.214053E-02
   3138.14  3.180384E-02
   3144.14  3.147186E-02
   3150.15  3.114456E-02
   3156.16  3.082182E-02
   3162.16  3.050284E-02
   3168.17  3.018782E-02
   3174.17  2.987720E-02
   3180.18  2.957086E-02
   3186.19  2.926872E-02
   3192.19  2.897073E-02
   3198.20  2.867682E-02
   3204.20  2.838690E-02
   3210.21  2.810082E-02
   3216.22  2.781780E-02
   3222.22  2.753859E-02
   3228.23  2.726318E-02
   3234.23  2.699142E-02
   3240.24  2.672333E-02
   3246.25  2.645876E-02
   3252.25  2.619771E-02
   3258.26  2.594012E-02
   3264.26  2.568552E-02
   3270.27  2.543388E-02
   3276.28  2.518551E-02
   3282.28  2.494038E-02
   3288.29  2.469844E-02
   3294.29  2.445965E-02
   3300.30  2.422394E-02
   3306.31  2.399125E-02
   3312.31  2.376155E-02
   3318.32  2.353426E-02
   3324.32  2.330964E-02
   3330.33  2.308789E-02
   3336.34  2.286894E-02
   3342.34  2.265274E-02
   3348.35  2.243927E-02
   3354.35  2.222850E-02
   3360.36  2.202035E-02
   3366.37  2.181480E-02
   3372.37  2.161138E-02
   3378.38  2.141039E-02
   3384.38  2.121186E-02
   3390.39  2.101578E-02
   3396.40  2.082213E-02
   3402.40  2.063082E-02
   3408.41  2.044188E-02
   3414.41  2.025522E-02
   3420.42  2.007082E-02
   3426.43  1.988832E-02
   3432.43  1.970787E-02
   3438.44  1.952961E-02
   3444.44  1.935347E-02
   3450.45  1.917944E-02
   3456.46  1.900749E-02
   3462.46  1.883759E-02
   3468.47  1.866970E-02
   3474.47  1.850379E-02
   3480.48  1.833965E-02
   3486.49  1.817721E-02
   3492.49  1.801670E-02
   3498.50  1.785804E-02
   3504.50  1.770125E-02
   3510.51  1.754629E-02
   3516.52  1.739310E-02
   3522.52  1.724169E-02
   3528.53  1.709203E-02
   3534.53  1.694403E-02
   3540.54  1.679746E-02
   3546.55  1.665256E-02
   3552.55  1.650931E-02
   3558.56  1.636767E-02
   3564.56  1.622766E-02
   3570.57  1.608923E-02
   3576.58  1.595234E-02
   3582.58  1.581699E-02
   3588.59  1.568318E-02
   3594.59  1.555065E-02
   3600.60  1.541951E-02
   3606.61  1.528981E-02
   3612.61  1.516156E-02
   3618.62  1.503472E-02
   3624.62  1.490929E-02
   3630.63  1.478523E-02
   3636.64  1.466252E-02
   3642.64  1.454115E-02
   3648.65  1.442112E-02
   3654.65  1.430216E-02
   3660.66  1.418449E-02
   3666.67  1.406808E-02
   3672.67  1.395294E-02
   3678.68  1.383903E-02
   3684.68  1.372634E-02
   3690.69  1.361485E-02
   3696.70  1.350456E-02
   3702.70  1.339545E-02
   3708.71  1.328747E-02
   3714.71  1.318043E-02
   3720.72  1.307453E-02
   3726.73  1.296976E-02
   3732.73  1.286608E-02
   3738.74  1.276350E-02
   3744.74  1.266197E-02
   3750.75  1.256151E-02
   3756.76  1.246209E-02
   3762.76  1.236372E-02
   3768.77  1.226634E-02
   3774.77  1.216980E-02
   3780.78  1.207427E-02
   3786.79  1.197972E-02
   3792.79  1.188613E-02
   3798.80  1.179352E-02
   3804.80  1.170183E-02
   3810.81  1.161109E-02
   3816.82  1.152126E-02
   3822.82  1.143234E-02
   3828.83  1.134432E-02
   3834.83  1.125707E-02
   3840.84  1.117068E-02
   3846.85  1.108515E-02
   3852.85  1.100049E-02
   3858.86  1.091666E-02
   3864.86  1.083368E-02
   3870.87  1.075152E-02
   3876.88  1.067017E-02
   3882.88  1.058962E-02
   3888.89  1.050989E-02
   3894.90  1.043082E-02
   3900.90  1.035248E-02
   3906.91  1.027493E-02
   3912.91  1.019813E-02
   3918.92  1.012208E-02
   3924.93  1.004676E-02
   3930.93  9.972179E-03
   3936.94  9.898327E-03
   3942.94  9.825175E-03
   3948.95  9.752741E-03
   3954.96  9.680979E-03
   3960.96  9.609818E-03
   3966.97  9.539346E-03
   3972.97  9.469541E-03
   3978.98  9.400416E-03
   3984.99  9.331947E-03
   3990.99  9.264112E-03
   3997.00  9.196928E-03
   4003.00  9.130375E-03
   4009.01  9.064464E-03
   4015.02  8.999151E-03
   4021.02  8.934408E-03
   4027.03  8.870239E-03
   4033.03  8.806678E-03
   4039.04  8.743697E-03
   4045.05  8.681307E-03
   4051.05  8.619481E-03
   4057.06  8.558244E-03
   4063.06  8.497568E-03
   4069.07  8.437450E-03
   4075.08  8.377877E-03
   4081.08  8.318868E-03
   4087.09  8.260326E-03
   4093.09  8.202309E-03
   4099.10  8.144816E-03
   4105.11  8.087843E-03
   4111.11  8.031396E-03
   4117.12  7.975449E-03
   4123.12  7.920013E-03
   4129.13  7.865091E-03
   4135.14  7.810634E-03
   4141.14  7.756685E-03
   4147.15  7.703221E-03
   4153.15  7.650170E-03
   4159.16  7.597594E-03
   4165.17  7.545477E-03
   4171.17  7.493817E-03
   4177.18  7.442627E-03
   4183.18  7.391880E-03
   4189.19  7.341588E-03
   4195.20  7.291734E-03
   4201.20  7.242322E-03
   4207.21  7.193341E-03
   4213.21  7.144788E-03
   4219.22  7.096641E-03
   4225.23  7.048884E-03
   4231.23  7.001552E-03
   4237.24  6.954630E-03
   4243.24  6.908120E-03
   4249.25  6.862011E-03
   4255.26  6.816293E-03
   4261.26  6.770969E-03
   4267.27  6.726040E-03
   4273.27  6.681499E-03
   4279.28  6.637333E-03
   4285.29  6.593534E-03
   4291.29  6.550075E-03
   4297.30  6.506989E-03
   4303.30  6.464262E-03
   4309.31  6.421900E-03
   4315.32  6.379899E-03
   4321.32  6.338251E-03
   4327.33  6.296955E-03
   4333.33  6.256001E-03
   4339.34  6.215403E-03
   4345.35  6.175139E-03
   4351.35  6.135209E-03
   4357.36  6.095580E-03
   4363.36  6.056278E-03
   4369.37  6.017296E-03
   4375.38  5.978636E-03
   4381.38  5.940299E-03
   4387.39  5.902283E-03
   4393.39  5.864578E-03
   4399.40  5.827188E-03
   4405.41  5.790096E-03
   4411.41  5.753312E-03
   4417.42  5.716834E-03
   4423.42  5.680641E-03
   4429.43  5.644732E-03
   4435.44  5.609116E-03
   4441.44  5.573793E-03
   4447.45  5.538747E-03
   4453.45  5.503984E-03
   4459.46  5.469506E-03
   4465.47  5.435309E-03
   4471.47  5.401381E-03
   4477.48  5.367734E-03
   4483.48  5.334349E-03
   4489.49  5.301229E-03
   4495.50  5.268383E-03
   4501.50  5.235758E-03
   4507.51  5.203392E-03
   4513.51  5.171296E-03
   4519.52  5.139440E-03
   4525.53  5.107841E-03
   4531.53  5.076490E-03
   4537.54  5.045392E-03
   4543.54  5.014533E-03
   4549.55  4.983919E-03
   4555.56  4.953553E-03
   4561.56  4.923414E-03
   4567.57  4.893518E-03
   4573.57  4.863832E-03
   4579.58  4.834376E-03
   4585.59  4.805152E-03
   4591.59  4.776158E-03
   4597.60  4.747387E-03
   4603.60  4.718831E-03
   4609.61  4.690504E-03
   4615.62  4.662394E-03
   4621.62  4.634500E-03
   4627.63  4.606816E-03
   4633.63  4.579349E-03
   4639.64  4.552096E-03
   4645.65  4.525037E-03
   4651.65  4.498172E-03
   4657.66  4.471520E-03
   4663.66  4.445069E-03
   4669.67  4.418816E-03
   4675.68  4.392761E-03
   4681.68  4.366909E-03
   4687.69  4.341244E-03
   4693.69  4.315780E-03
   4699.70  4.290500E-03
   4705.71  4.265419E-03
   4711.71  4.240519E-03
   4717.72  4.215807E-03
   4723.72  4.191268E-03
   4729.73  4.166905E-03
   4735.74  4.142734E-03
   4741.74  4.118731E-03
   4747.75  4.094912E-03
   4753.75  4.071269E-03
   4759.76  4.047804E-03
   4765.77  4.024507E-03
   4771.77  4.001387E-03
   4777.78  3.978434E-03
   4783.78  3.955653E-03
   4789.79  3.933032E-03
   4795.80  3.910579E-03
   4801.80  3.888273E-03
   4807.81  3.866130E-03
   4813.81  3.844146E-03
   4819.82  3.822326E-03
   4825.83  3.800660E-03
   4831.83  3.779156E-03
   4837.84  3.757809E-03
   4843.84  3.736616E-03
   4849.85  3.715570E-03
   4855.86  3.694682E-03
   4861.86  3.673942E-03
   4867.87  3.653350E-03
   4873.87  3.632905E-03
   4879.88  3.612604E-03
   4885.89  3.592450E-03
   4891.89  3.572434E-03
   4897.90  3.552568E-03
   4903.90  3.532833E-03
   4909.91  3.513250E-03
   4915.92  3.493800E-03
   4921.92  3.474488E-03
   4927.93  3.455317E-03
   4933.93  3.436275E-03
   4939.94  3.417371E-03
   4945.95  3.398595E-03
   4951.95  3.379952E-03
   4957.96  3.361430E-03
   4963.96  3.343036E-03
   4969.97  3.324771E-03
   4975.98  3.306635E-03
   4981.98  3.288626E-03
   4987.99  3.270743E-03
   4993.99  3.252985E-03
   5000.00  3.235350E-03
   5006.01  3.217831E-03
   5012.01  3.200439E-03
   5018.02  3.183160E-03
   5024.02  3.166011E-03
   5030.03  3.148971E-03
   5036.04  3.132045E-03
   5042.04  3.115229E-03
   5048.05  3.098533E-03
   5054.05  3.081949E-03
   5060.06  3.065478E-03
   5066.07  3.049115E-03
   5072.07  3.032874E-03
   5078.08  3.016736E-03
   5084.08  3.000704E-03
   5090.09  2.984787E-03
   5096.10  2.968980E-03
   5102.10  2.953270E-03
   5108.11  2.937673E-03
   5114.11  2.922181E-03
   5120.12  2.906791E-03
   5126.13  2.891501E-03
   5132.13  2.876317E-03
   5138.14  2.861232E-03
   5144.14  2.846247E-03
   5150.15  2.831365E-03
   5156.16  2.816581E-03
   5162.16  2.801895E-03
   5168.17  2.787306E-03
   5174.17  2.772818E-03
   5180.18  2.758422E-03
   5186.19  2.744123E-03
   5192.19  2.729922E-03
   5198.20  2.715800E-03
   5204.20  2.701774E-03
   5210.21  2.687840E-03
   5216.22  2.673997E-03
   5222.22  2.660247E-03
   5228.23  2.646581E-03
   5234.23  2.633007E-03
   5240.24  2.619525E-03
   5246.25  2.606126E-03
   5252.25  2.592818E-03
   5258.26  2.579596E-03
   5264.26  2.566460E-03
   5270.27  2.553410E-03
   5276.28  2.540444E-03
   5282.28  2.527557E-03
   5288.29  2.514757E-03
   5294.29  2.502037E-03
   5300.30  2.489400E-03
   5306.31  2.476839E-03
   5312.31  2.464364E-03
   5318.32  2.451971E-03
   5324.32  2.439653E-03
   5330.33  2.427416E-03
   5336.34  2.415256E-03
   5342.34  2.403173E-03
   5348.35  2.391167E-03
   5354.35  2.379240E-03
   5360.36  2.367390E-03
   5366.37  2.355606E-03
   5372.37  2.343903E-03
   5378.38  2.332269E-03
   5384.38  2.320710E-03
   5390.39  2.309226E-03
   5396.40  2.297814E-03
   5402.40  2.286473E-03
   5408.41  2.275200E-03
   5414.41  2.264004E-03
   5420.42  2.252873E-03
   5426.43  2.241813E-03
   5432.43  2.230821E-03
   5438.44  2.219900E-03
   5444.44  2.209044E-03
   5450.45  2.198261E-03
   5456.46  2.187534E-03
   5462.46  2.176878E-03
   5468.47  2.166283E-03
   5474.47  2.155762E-03
   5480.48  2.145298E-03
   5486.49  2.134900E-03
   5492.49  2.124570E-03
   5498.50  2.114298E-03
   5504.50  2.104093E-03
   5510.51  2.093952E-03
   5516.52  2.083868E-03
   5522.52  2.073850E-03
   5528.53  2.063892E-03
   5534.53  2.053993E-03
   5540.54  2.044156E-03
   5546.55  2.034376E-03
   5552.55  2.024656E-03
   5558.56  2.014995E-03
   5564.56  2.005392E-03
   5570.57  1.995846E-03
   5576.58  1.986361E-03
   5582.58  1.976933E-03
   5588.59  1.967559E-03
   5594.59  1.958241E-03
   5600.60  1.948986E-03
   5606.61  1.939781E-03
   5612.61  1.930628E-03
   5618.62  1.921533E-03
   5624.62  1.912498E-03
   5630.63  1.903507E-03
   5636.64  1.894571E-03
   5642.64  1.885687E-03
   5648.65  1.876860E-03
   5654.65  1.868081E-03
   5660.66  1.859359E-03
   5666.67  1.850681E-03
   5672.67  1.842062E-03
   5678.68  1.833487E-03
   5684.69  1.824968E-03
   5690.69  1.816498E-03
   5696.70  1.808078E-03
   5702.70  1.799707E-03
   5708.71  1.791384E-03
   5714.71  1.783113E-03
   5720.72  1.774887E-03
   5726.73  1.766709E-03
   5732.73  1.758580E-03
   5738.74  1.750500E-03
   5744.75  1.742465E-03
   5750.75  1.734481E-03
   5756.76  1.726541E-03
   5762.76  1.718641E-03
   5768.77  1.710794E-03
   5774.77  1.702991E-03
   5780.78  1.695233E-03
   5786.79  1.687518E-03
   5792.79  1.679850E-03
   5798.80  1.672227E-03
   5804.81  1.664643E-03
   5810.81  1.657108E-03
   5816.82  1.649612E-03
   5822.82  1.642157E-03
   5828.83  1.634744E-03
   5834.83  1.627376E-03
   5840.84  1.620049E-03
   5846.85  1.612763E-03
   5852.85  1.605518E-03
   5858.86  1.598319E-03
   5864.87  1.591155E-03
   5870.87  1.584035E-03
   5876.88  1.576955E-03
   5882.88  1.569915E-03
   5888.89  1.562914E-03
   5894.90  1.555954E-03
   5900.90  1.549032E-03
   5906.91  1.542151E-03
   5912.91  1.535305E-03
   5918.92  1.528499E-03
   5924.93  1.521734E-03
   5930.93  1.515005E-03
   5936.94  1.508315E-03
   5942.94  1.501660E-03
   5948.95  1.495043E-03
   5954.96  1.488464E-03
   5960.96  1.481918E-03
   5966.97  1.475412E-03
   5972.97  1.468943E-03
   5978.98  1.462507E-03
   5984.99  1.456110E-03
   5990.99  1.449745E-03
   5997.00  1.443417E-03
   6003.00  1.437120E-03
   6009.01  1.430860E-03
   6015.02  1.424636E-03
   6021.02  1.418446E-03
   6027.03  1.412289E-03
   6033.03  1.406165E-03
