Si Rho=2.33, Sig=0.nm, P=0., 1.5deg
 Photon energy (eV), Reflectivity
   1000.00  0.746370
   1006.01  0.742907
   1012.01  0.739181
   1018.02  0.735167
   1024.02  0.730818
   1030.03  0.726113
   1036.04  0.721004
   1042.04  0.715427
   1048.05  0.709343
   1054.05  0.702666
   1060.06  0.695309
   1066.07  0.687189
   1072.07  0.678160
   1078.08  0.668085
   1084.08  0.656813
   1090.09  0.643914
   1096.10  0.629288
   1102.10  0.612750
   1108.11  0.593966
   1114.11  0.572770
   1120.12  0.549049
   1126.13  0.522910
   1132.13  0.494758
   1138.14  0.465349
   1144.14  0.435647
   1150.15  0.406642
   1156.16  0.379086
   1162.16  0.353402
   1168.17  0.329784
   1174.17  0.308233
   1180.18  0.288620
   1186.19  0.270789
   1192.19  0.254574
   1198.20  0.239787
   1204.20  0.226272
   1210.21  0.213901
   1216.22  0.202542
   1222.22  0.192072
   1228.23  0.182416
   1234.23  0.173487
   1240.24  0.165191
   1246.25  0.157485
   1252.25  0.150313
   1258.26  0.143612
   1264.26  0.137345
   1270.27  0.131480
   1276.28  0.125976
   1282.28  0.120797
   1288.29  0.115928
   1294.29  0.111342
   1300.30  0.107003
   1306.31  0.102906
   1312.31  9.903223E-02
   1318.32  9.536130E-02
   1324.32  9.187466E-02
   1330.33  8.856875E-02
   1336.34  8.543090E-02
   1342.34  8.243893E-02
   1348.35  7.959176E-02
   1354.35  7.688247E-02
   1360.36  7.429903E-02
   1366.37  7.182635E-02
   1372.37  6.946808E-02
   1378.38  6.721707E-02
   1384.38  6.505973E-02
   1390.39  6.299230E-02
   1396.40  6.101525E-02
   1402.40  5.912345E-02
   1408.41  5.730154E-02
   1414.41  5.555444E-02
   1420.42  5.387997E-02
   1426.43  5.227335E-02
   1432.43  5.072062E-02
   1438.44  4.923027E-02
   1444.44  4.779915E-02
   1450.45  4.642145E-02
   1456.46  4.508776E-02
   1462.46  4.380552E-02
   1468.47  4.257221E-02
   1474.47  4.138135E-02
   1480.48  4.022666E-02
   1486.49  3.911487E-02
   1492.49  3.804394E-02
   1498.50  3.700745E-02
   1504.50  3.600035E-02
   1510.51  3.502946E-02
   1516.52  3.409305E-02
   1522.52  3.318512E-02
   1528.53  3.229959E-02
   1534.53  3.144505E-02
   1540.54  3.062006E-02
   1546.55  2.981998E-02
   1552.55  2.903602E-02
   1558.56  2.827880E-02
   1564.56  2.754719E-02
   1570.57  2.683908E-02
   1576.58  2.614010E-02
   1582.58  2.546456E-02
   1588.59  2.481141E-02
   1594.59  2.417979E-02
   1600.60  2.355465E-02
   1606.61  2.294740E-02
   1612.61  2.236008E-02
   1618.62  2.179181E-02
   1624.62  2.123149E-02
   1630.63  2.068070E-02
   1636.64  2.014783E-02
   1642.64  1.963220E-02
   1648.65  1.912913E-02
   1654.65  1.862382E-02
   1660.66  1.813499E-02
   1666.67  1.766201E-02
   1672.67  1.720423E-02
   1678.68  1.674090E-02
   1684.68  1.628568E-02
   1690.69  1.584545E-02
   1696.70  1.541958E-02
   1702.70  1.499945E-02
   1708.71  1.456622E-02
   1714.71  1.414775E-02
   1720.72  1.374339E-02
   1726.73  1.335261E-02
   1732.73  1.294226E-02
   1738.74  1.252900E-02
   1744.74  1.213061E-02
   1750.75  1.174648E-02
   1756.76  1.137602E-02
   1762.76  1.093763E-02
   1768.77  1.051628E-02
   1774.77  1.011201E-02
   1780.78  9.724057E-03
   1786.79  9.303447E-03
   1792.79  8.768518E-03
   1798.80  8.262339E-03
   1804.80  7.783348E-03
   1810.81  7.329921E-03
   1816.82  6.117087E-03
   1822.82  3.749569E-03
   1828.83  2.076257E-03
   1834.83  9.645099E-04
   1840.84  5.878111E-03
   1846.85  6.326623E-03
   1852.85  6.794730E-03
   1858.86  7.282097E-03
   1864.86  7.575031E-03
   1870.87  7.821999E-03
   1876.88  8.071361E-03
   1882.88  8.322884E-03
   1888.89  8.576441E-03
   1894.90  8.686351E-03
   1900.90  8.759516E-03
   1906.91  8.831685E-03
   1912.91  8.902808E-03
   1918.92  8.972862E-03
   1924.93  8.996364E-03
   1930.93  9.000779E-03
   1936.94  9.004548E-03
   1942.94  9.007700E-03
   1948.95  9.010240E-03
   1954.96  8.994797E-03
   1960.96  8.964256E-03
   1966.97  8.933589E-03
   1972.97  8.902830E-03
   1978.98  8.871959E-03
   1984.99  8.835616E-03
   1990.99  8.785766E-03
   1997.00  8.736182E-03
   2003.00  8.686866E-03
   2009.01  8.637833E-03
   2015.02  8.589056E-03
   2021.02  8.529086E-03
   2027.03  8.468907E-03
   2033.03  8.409253E-03
   2039.04  8.350136E-03
   2045.05  8.291531E-03
   2051.05  8.229136E-03
   2057.06  8.163339E-03
   2063.06  8.098250E-03
   2069.07  8.033831E-03
   2075.08  7.970087E-03
   2081.08  7.907021E-03
   2087.09  7.838453E-03
   2093.09  7.770670E-03
   2099.10  7.703695E-03
   2105.10  7.637482E-03
   2111.11  7.572035E-03
   2117.12  7.505507E-03
   2123.12  7.436970E-03
   2129.13  7.369285E-03
   2135.14  7.302418E-03
   2141.14  7.236384E-03
   2147.15  7.171158E-03
   2153.15  7.104223E-03
   2159.16  7.037084E-03
   2165.17  6.970807E-03
   2171.17  6.905360E-03
   2177.18  6.840752E-03
   2183.18  6.776960E-03
   2189.19  6.711482E-03
   2195.20  6.646628E-03
   2201.20  6.582622E-03
   2207.21  6.519446E-03
   2213.21  6.457083E-03
   2219.22  6.395456E-03
   2225.23  6.332566E-03
   2231.23  6.270510E-03
   2237.24  6.209273E-03
   2243.24  6.148840E-03
   2249.25  6.089189E-03
   2255.26  6.030228E-03
   2261.26  5.970438E-03
   2267.27  5.911431E-03
   2273.27  5.853209E-03
   2279.28  5.795761E-03
   2285.29  5.739067E-03
   2291.29  5.683107E-03
   2297.30  5.626598E-03
   2303.30  5.570813E-03
   2309.31  5.515776E-03
   2315.32  5.461451E-03
   2321.32  5.407848E-03
   2327.33  5.354952E-03
   2333.33  5.301825E-03
   2339.34  5.249186E-03
   2345.35  5.197250E-03
   2351.35  5.145989E-03
   2357.36  5.095413E-03
   2363.36  5.045488E-03
   2369.37  4.995729E-03
   2375.38  4.946213E-03
   2381.38  4.897350E-03
   2387.39  4.849126E-03
   2393.39  4.801529E-03
   2399.40  4.754559E-03
   2405.41  4.708067E-03
   2411.41  4.661558E-03
   2417.42  4.615660E-03
   2423.42  4.570359E-03
   2429.43  4.525651E-03
   2435.44  4.481517E-03
   2441.44  4.437958E-03
   2447.45  4.394527E-03
   2453.45  4.351471E-03
   2459.46  4.308973E-03
   2465.47  4.267025E-03
   2471.47  4.225611E-03
   2477.48  4.184737E-03
   2483.48  4.144320E-03
   2489.49  4.103961E-03
   2495.50  4.064127E-03
   2501.50  4.024803E-03
   2507.51  3.985979E-03
   2513.51  3.947644E-03
   2519.52  3.909798E-03
   2525.53  3.872249E-03
   2531.53  3.834933E-03
   2537.54  3.798091E-03
   2543.54  3.761715E-03
   2549.55  3.725799E-03
   2555.56  3.690332E-03
   2561.56  3.655306E-03
   2567.57  3.620496E-03
   2573.57  3.585979E-03
   2579.58  3.551902E-03
   2585.59  3.518251E-03
   2591.59  3.485014E-03
   2597.60  3.452193E-03
   2603.60  3.419770E-03
   2609.61  3.387518E-03
   2615.62  3.355582E-03
   2621.62  3.324040E-03
   2627.63  3.292877E-03
   2633.63  3.262107E-03
   2639.64  3.231714E-03
   2645.65  3.201682E-03
   2651.65  3.171848E-03
   2657.66  3.142296E-03
   2663.66  3.113111E-03
   2669.67  3.084279E-03
   2675.68  3.055794E-03
   2681.68  3.027652E-03
   2687.69  2.999849E-03
   2693.69  2.972251E-03
   2699.70  2.944895E-03
   2705.71  2.917869E-03
   2711.71  2.891163E-03
   2717.72  2.864781E-03
   2723.72  2.838708E-03
   2729.73  2.812945E-03
   2735.74  2.787426E-03
   2741.74  2.762082E-03
   2747.75  2.737042E-03
   2753.75  2.712296E-03
   2759.76  2.687842E-03
   2765.77  2.663670E-03
   2771.77  2.639788E-03
   2777.78  2.616181E-03
   2783.78  2.592691E-03
   2789.79  2.569476E-03
   2795.80  2.546530E-03
   2801.80  2.523843E-03
   2807.81  2.501429E-03
   2813.81  2.479262E-03
   2819.82  2.457356E-03
   2825.83  2.435639E-03
   2831.83  2.414102E-03
   2837.84  2.392811E-03
   2843.84  2.371763E-03
   2849.85  2.350959E-03
   2855.86  2.330385E-03
   2861.86  2.310047E-03
   2867.87  2.289940E-03
   2873.87  2.269951E-03
   2879.88  2.250186E-03
   2885.89  2.230638E-03
   2891.89  2.211309E-03
   2897.90  2.192200E-03
   2903.90  2.173302E-03
   2909.91  2.154610E-03
   2915.92  2.136118E-03
   2921.92  2.117741E-03
   2927.93  2.099572E-03
   2933.93  2.081602E-03
   2939.94  2.063829E-03
   2945.95  2.046254E-03
   2951.95  2.028870E-03
   2957.96  2.011682E-03
   2963.96  1.994652E-03
   2969.97  1.977759E-03
   2975.98  1.961047E-03
   2981.98  1.944520E-03
   2987.99  1.928171E-03
   2993.99  1.912000E-03
   3000.00  1.896001E-03
   3006.01  1.880181E-03
   3012.01  1.864502E-03
   3018.02  1.848942E-03
   3024.02  1.833557E-03
   3030.03  1.818331E-03
   3036.04  1.803269E-03
   3042.04  1.788369E-03
   3048.05  1.773626E-03
   3054.05  1.759041E-03
   3060.06  1.744593E-03
   3066.07  1.730253E-03
   3072.07  1.716061E-03
   3078.08  1.702022E-03
   3084.08  1.688130E-03
   3090.09  1.674385E-03
   3096.10  1.660781E-03
   3102.10  1.647322E-03
   3108.11  1.634001E-03
   3114.11  1.620764E-03
   3120.12  1.607670E-03
   3126.13  1.594706E-03
   3132.13  1.581880E-03
   3138.14  1.569184E-03
   3144.14  1.556618E-03
   3150.15  1.544184E-03
   3156.16  1.531876E-03
   3162.16  1.519665E-03
   3168.17  1.507561E-03
   3174.17  1.495581E-03
   3180.18  1.483724E-03
   3186.19  1.471984E-03
   3192.19  1.460367E-03
   3198.20  1.448865E-03
   3204.20  1.437479E-03
   3210.21  1.426206E-03
   3216.22  1.415014E-03
   3222.22  1.403935E-03
   3228.23  1.392967E-03
   3234.23  1.382107E-03
   3240.24  1.371360E-03
   3246.25  1.360715E-03
   3252.25  1.350175E-03
   3258.26  1.339744E-03
   3264.26  1.329397E-03
   3270.27  1.319138E-03
   3276.28  1.308982E-03
   3282.28  1.298922E-03
   3288.29  1.288960E-03
   3294.29  1.279100E-03
   3300.30  1.269334E-03
   3306.31  1.259664E-03
   3312.31  1.250088E-03
   3318.32  1.240581E-03
   3324.32  1.231161E-03
   3330.33  1.221830E-03
   3336.34  1.212588E-03
   3342.34  1.203437E-03
   3348.35  1.194374E-03
   3354.35  1.185397E-03
   3360.36  1.176510E-03
   3366.37  1.167703E-03
   3372.37  1.158966E-03
   3378.38  1.150304E-03
   3384.38  1.141726E-03
   3390.39  1.133232E-03
   3396.40  1.124817E-03
   3402.40  1.116479E-03
   3408.41  1.108223E-03
   3414.41  1.100045E-03
   3420.42  1.091944E-03
   3426.43  1.083902E-03
   3432.43  1.075930E-03
   3438.44  1.068035E-03
   3444.44  1.060210E-03
   3450.45  1.052461E-03
   3456.46  1.044784E-03
   3462.46  1.037176E-03
   3468.47  1.029643E-03
   3474.47  1.022177E-03
   3480.48  1.014768E-03
   3486.49  1.007422E-03
   3492.49  1.000144E-03
   3498.50  9.929311E-04
   3504.50  9.857877E-04
   3510.51  9.787057E-04
   3516.52  9.716903E-04
   3522.52  9.647375E-04
   3528.53  9.578505E-04
   3534.53  9.510227E-04
   3540.54  9.442432E-04
   3546.55  9.375275E-04
   3552.55  9.308705E-04
   3558.56  9.242743E-04
   3564.56  9.177360E-04
   3570.57  9.112596E-04
   3576.58  9.048405E-04
   3582.58  8.984755E-04
   3588.59  8.921716E-04
   3594.59  8.859124E-04
   3600.60  8.797061E-04
   3606.61  8.735553E-04
   3612.61  8.674593E-04
   3618.62  8.614152E-04
   3624.62  8.554257E-04
   3630.63  8.494899E-04
   3636.64  8.436051E-04
   3642.64  8.377731E-04
   3648.65  8.319897E-04
   3654.65  8.262499E-04
   3660.66  8.205595E-04
   3666.67  8.149148E-04
   3672.67  8.093254E-04
   3678.68  8.037807E-04
   3684.68  7.982843E-04
   3690.69  7.928362E-04
   3696.70  7.874361E-04
   3702.70  7.820834E-04
   3708.71  7.767738E-04
   3714.71  7.715003E-04
   3720.72  7.662738E-04
   3726.73  7.610915E-04
   3732.73  7.559531E-04
   3738.74  7.508607E-04
   3744.74  7.458115E-04
   3750.75  7.408031E-04
   3756.76  7.358380E-04
   3762.76  7.309172E-04
   3768.77  7.260348E-04
   3774.77  7.211879E-04
   3780.78  7.163811E-04
   3786.79  7.116157E-04
   3792.79  7.068896E-04
   3798.80  7.022044E-04
   3804.80  6.975578E-04
   3810.81  6.929499E-04
   3816.82  6.883800E-04
   3822.82  6.838500E-04
   3828.83  6.793579E-04
   3834.83  6.748954E-04
   3840.84  6.704702E-04
   3846.85  6.660821E-04
   3852.85  6.617288E-04
   3858.86  6.574120E-04
   3864.86  6.531319E-04
   3870.87  6.488857E-04
   3876.88  6.446755E-04
   3882.88  6.405009E-04
   3888.89  6.363597E-04
   3894.90  6.322464E-04
   3900.90  6.281660E-04
   3906.91  6.241189E-04
   3912.91  6.201024E-04
   3918.92  6.161223E-04
   3924.93  6.121726E-04
   3930.93  6.082535E-04
   3936.94  6.043696E-04
   3942.94  6.005159E-04
   3948.95  5.966916E-04
   3954.96  5.928971E-04
   3960.96  5.891301E-04
   3966.97  5.853958E-04
   3972.97  5.816887E-04
   3978.98  5.780105E-04
   3984.99  5.743645E-04
   3990.99  5.707435E-04
   3997.00  5.671541E-04
   4003.00  5.635949E-04
   4009.01  5.600617E-04
   4015.02  5.565562E-04
   4021.02  5.530766E-04
   4027.03  5.496227E-04
   4033.03  5.461963E-04
   4039.04  5.427967E-04
   4045.05  5.394245E-04
   4051.05  5.360771E-04
   4057.06  5.327565E-04
   4063.06  5.294605E-04
   4069.07  5.261942E-04
   4075.08  5.229509E-04
   4081.08  5.197317E-04
   4087.09  5.165368E-04
   4093.09  5.133660E-04
   4099.10  5.102173E-04
   4105.11  5.070940E-04
   4111.11  5.039961E-04
   4117.12  5.009201E-04
   4123.12  4.978689E-04
   4129.13  4.948410E-04
   4135.14  4.918345E-04
   4141.14  4.888544E-04
   4147.15  4.858951E-04
   4153.15  4.829555E-04
   4159.16  4.800384E-04
   4165.17  4.771438E-04
   4171.17  4.742697E-04
   4177.18  4.714194E-04
   4183.18  4.685896E-04
   4189.19  4.657817E-04
   4195.20  4.629940E-04
   4201.20  4.602295E-04
   4207.21  4.574819E-04
   4213.21  4.547588E-04
   4219.22  4.520538E-04
   4225.23  4.493669E-04
   4231.23  4.467011E-04
   4237.24  4.440545E-04
   4243.24  4.414291E-04
   4249.25  4.388226E-04
   4255.26  4.362352E-04
   4261.26  4.336667E-04
   4267.27  4.311186E-04
   4273.27  4.285880E-04
   4279.28  4.260772E-04
   4285.29  4.235835E-04
   4291.29  4.211067E-04
   4297.30  4.186482E-04
   4303.30  4.162080E-04
   4309.31  4.137858E-04
   4315.32  4.113817E-04
   4321.32  4.089926E-04
   4327.33  4.066243E-04
   4333.33  4.042707E-04
   4339.34  4.019362E-04
   4345.35  3.996178E-04
   4351.35  3.973154E-04
   4357.36  3.950303E-04
   4363.36  3.927595E-04
   4369.37  3.905059E-04
   4375.38  3.882680E-04
   4381.38  3.860440E-04
   4387.39  3.838399E-04
   4393.39  3.816497E-04
   4399.40  3.794750E-04
   4405.41  3.773181E-04
   4411.41  3.751735E-04
   4417.42  3.730483E-04
   4423.42  3.709336E-04
   4429.43  3.688353E-04
   4435.44  3.667518E-04
   4441.44  3.646830E-04
   4447.45  3.626288E-04
   4453.45  3.605905E-04
   4459.46  3.585640E-04
   4465.47  3.565533E-04
   4471.47  3.545568E-04
   4477.48  3.525746E-04
   4483.48  3.506053E-04
   4489.49  3.486499E-04
   4495.50  3.467099E-04
   4501.50  3.447798E-04
   4507.51  3.428636E-04
   4513.51  3.409612E-04
   4519.52  3.390726E-04
   4525.53  3.371962E-04
   4531.53  3.353320E-04
   4537.54  3.334828E-04
   4543.54  3.316457E-04
   4549.55  3.298207E-04
   4555.56  3.280089E-04
   4561.56  3.262105E-04
   4567.57  3.244224E-04
   4573.57  3.226476E-04
   4579.58  3.208831E-04
   4585.59  3.191330E-04
   4591.59  3.173932E-04
   4597.60  3.156662E-04
   4603.60  3.139493E-04
   4609.61  3.122466E-04
   4615.62  3.105539E-04
   4621.62  3.088739E-04
   4627.63  3.072050E-04
   4633.63  3.055474E-04
   4639.64  3.038996E-04
   4645.65  3.022628E-04
   4651.65  3.006385E-04
   4657.66  2.990238E-04
   4663.66  2.974200E-04
   4669.67  2.958271E-04
   4675.68  2.942462E-04
   4681.68  2.926748E-04
   4687.69  2.911129E-04
   4693.69  2.895641E-04
   4699.70  2.880235E-04
   4705.71  2.864932E-04
   4711.71  2.849748E-04
   4717.72  2.834644E-04
   4723.72  2.819643E-04
   4729.73  2.804746E-04
   4735.74  2.789938E-04
   4741.74  2.775233E-04
   4747.75  2.760630E-04
   4753.75  2.746117E-04
   4759.76  2.731705E-04
   4765.77  2.717380E-04
   4771.77  2.703167E-04
   4777.78  2.689030E-04
   4783.78  2.674979E-04
   4789.79  2.661039E-04
   4795.80  2.647185E-04
   4801.80  2.633405E-04
   4807.81  2.619721E-04
   4813.81  2.606123E-04
   4819.82  2.592621E-04
   4825.83  2.579190E-04
   4831.83  2.565855E-04
   4837.84  2.552615E-04
   4843.84  2.539458E-04
   4849.85  2.526382E-04
   4855.86  2.513389E-04
   4861.86  2.500477E-04
   4867.87  2.487657E-04
   4873.87  2.474919E-04
   4879.88  2.462249E-04
   4885.89  2.449670E-04
   4891.89  2.437172E-04
   4897.90  2.424763E-04
   4903.90  2.412422E-04
   4909.91  2.400159E-04
   4915.92  2.387974E-04
   4921.92  2.375867E-04
   4927.93  2.363848E-04
   4933.93  2.351895E-04
   4939.94  2.340017E-04
   4945.95  2.328218E-04
   4951.95  2.316493E-04
   4957.96  2.304832E-04
   4963.96  2.293247E-04
   4969.97  2.281725E-04
   4975.98  2.270300E-04
   4981.98  2.258927E-04
   4987.99  2.247638E-04
   4993.99  2.236412E-04
   5000.00  2.225259E-04
   5006.01  2.214179E-04
   5012.01  2.203160E-04
   5018.02  2.192213E-04
   5024.02  2.181337E-04
   5030.03  2.170523E-04
   5036.04  2.159779E-04
   5042.04  2.149095E-04
   5048.05  2.138471E-04
   5054.05  2.127928E-04
   5060.06  2.117444E-04
   5066.07  2.107019E-04
   5072.07  2.096663E-04
   5078.08  2.086376E-04
   5084.08  2.076147E-04
   5090.09  2.065975E-04
   5096.10  2.055882E-04
   5102.10  2.045825E-04
   5108.11  2.035857E-04
   5114.11  2.025935E-04
   5120.12  2.016079E-04
   5126.13  2.006269E-04
   5132.13  1.996536E-04
   5138.14  1.986847E-04
   5144.14  1.977236E-04
   5150.15  1.967658E-04
   5156.16  1.958166E-04
   5162.16  1.948719E-04
   5168.17  1.939325E-04
   5174.17  1.929996E-04
   5180.18  1.920710E-04
   5186.19  1.911488E-04
   5192.19  1.902329E-04
   5198.20  1.893204E-04
   5204.20  1.884151E-04
   5210.21  1.875141E-04
   5216.22  1.866194E-04
   5222.22  1.857288E-04
   5228.23  1.848444E-04
   5234.23  1.839652E-04
   5240.24  1.830902E-04
   5246.25  1.822223E-04
   5252.25  1.813584E-04
   5258.26  1.804996E-04
   5264.26  1.796459E-04
   5270.27  1.787982E-04
   5276.28  1.779554E-04
   5282.28  1.771167E-04
   5288.29  1.762830E-04
   5294.29  1.754542E-04
   5300.30  1.746303E-04
   5306.31  1.738113E-04
   5312.31  1.729972E-04
   5318.32  1.721880E-04
   5324.32  1.713836E-04
   5330.33  1.705831E-04
   5336.34  1.697882E-04
   5342.34  1.689982E-04
   5348.35  1.682119E-04
   5354.35  1.674304E-04
   5360.36  1.666546E-04
   5366.37  1.658806E-04
   5372.37  1.651132E-04
   5378.38  1.643494E-04
   5384.38  1.635903E-04
   5390.39  1.628359E-04
   5396.40  1.620860E-04
   5402.40  1.613397E-04
   5408.41  1.605981E-04
   5414.41  1.598609E-04
   5420.42  1.591274E-04
   5426.43  1.583983E-04
   5432.43  1.576738E-04
   5438.44  1.569536E-04
   5444.44  1.562370E-04
   5450.45  1.555240E-04
   5456.46  1.548162E-04
   5462.46  1.541119E-04
   5468.47  1.534112E-04
   5474.47  1.527147E-04
   5480.48  1.520216E-04
   5486.49  1.513330E-04
   5492.49  1.506486E-04
   5498.50  1.499684E-04
   5504.50  1.492908E-04
   5510.51  1.486174E-04
   5516.52  1.479482E-04
   5522.52  1.472824E-04
   5528.53  1.466199E-04
   5534.53  1.459633E-04
   5540.54  1.453092E-04
   5546.55  1.446574E-04
   5552.55  1.440107E-04
   5558.56  1.433671E-04
   5564.56  1.427268E-04
   5570.57  1.420906E-04
   5576.58  1.414585E-04
   5582.58  1.408278E-04
   5588.59  1.402029E-04
   5594.59  1.395802E-04
   5600.60  1.389616E-04
   5606.61  1.383461E-04
   5612.61  1.377337E-04
   5618.62  1.371254E-04
   5624.62  1.365200E-04
   5630.63  1.359187E-04
   5636.64  1.353195E-04
   5642.64  1.347250E-04
   5648.65  1.341320E-04
   5654.65  1.335428E-04
   5660.66  1.329574E-04
   5666.67  1.323750E-04
   5672.67  1.317957E-04
   5678.68  1.312193E-04
   5684.69  1.306467E-04
   5690.69  1.300763E-04
   5696.70  1.295104E-04
   5702.70  1.289457E-04
   5708.71  1.283857E-04
   5714.71  1.278286E-04
   5720.72  1.272744E-04
   5726.73  1.267230E-04
   5732.73  1.261737E-04
   5738.74  1.256288E-04
   5744.75  1.250861E-04
   5750.75  1.245461E-04
   5756.76  1.240097E-04
   5762.76  1.234763E-04
   5768.77  1.229447E-04
   5774.77  1.224168E-04
   5780.78  1.218925E-04
   5786.79  1.213692E-04
   5792.79  1.208504E-04
   5798.80  1.203335E-04
   5804.81  1.198193E-04
   5810.81  1.193079E-04
   5816.82  1.187992E-04
   5822.82  1.182939E-04
   5828.83  1.177897E-04
