Si Rho=2.33, Sig=0.nm, P=0., 0.10000E-01deg
 Photon energy (eV), Reflectivity
   1000.00  0.999042
   1006.01  0.999046
   1012.01  0.999050
   1018.02  0.999055
   1024.02  0.999059
   1030.03  0.999063
   1036.04  0.999067
   1042.04  0.999071
   1048.05  0.999075
   1054.05  0.999078
   1060.06  0.999082
   1066.07  0.999086
   1072.07  0.999090
   1078.08  0.999093
   1084.08  0.999097
   1090.09  0.999100
   1096.10  0.999103
   1102.10  0.999105
   1108.11  0.999107
   1114.11  0.999109
   1120.12  0.999111
   1126.13  0.999114
   1132.13  0.999116
   1138.14  0.999118
   1144.14  0.999120
   1150.15  0.999122
   1156.16  0.999124
   1162.16  0.999126
   1168.17  0.999127
   1174.17  0.999129
   1180.18  0.999131
   1186.19  0.999133
   1192.19  0.999135
   1198.20  0.999137
   1204.20  0.999139
   1210.21  0.999141
   1216.22  0.999143
   1222.22  0.999144
   1228.23  0.999146
   1234.23  0.999148
   1240.24  0.999150
   1246.25  0.999151
   1252.25  0.999153
   1258.26  0.999155
   1264.26  0.999156
   1270.27  0.999158
   1276.28  0.999159
   1282.28  0.999161
   1288.29  0.999163
   1294.29  0.999164
   1300.30  0.999166
   1306.31  0.999167
   1312.31  0.999169
   1318.32  0.999170
   1324.32  0.999172
   1330.33  0.999173
   1336.34  0.999175
   1342.34  0.999176
   1348.35  0.999177
   1354.35  0.999179
   1360.36  0.999180
   1366.37  0.999181
   1372.37  0.999183
   1378.38  0.999184
   1384.38  0.999185
   1390.39  0.999186
   1396.40  0.999187
   1402.40  0.999189
   1408.41  0.999190
   1414.41  0.999191
   1420.42  0.999192
   1426.43  0.999193
   1432.43  0.999194
   1438.44  0.999195
   1444.44  0.999196
   1450.45  0.999197
   1456.46  0.999198
   1462.46  0.999198
   1468.47  0.999200
   1474.47  0.999200
   1480.48  0.999201
   1486.49  0.999202
   1492.49  0.999202
   1498.50  0.999203
   1504.50  0.999204
   1510.51  0.999205
   1516.52  0.999206
   1522.52  0.999206
   1528.53  0.999207
   1534.53  0.999208
   1540.54  0.999208
   1546.55  0.999209
   1552.55  0.999209
   1558.56  0.999210
   1564.56  0.999210
   1570.57  0.999210
   1576.58  0.999211
   1582.58  0.999211
   1588.59  0.999211
   1594.59  0.999211
   1600.60  0.999211
   1606.61  0.999211
   1612.61  0.999211
   1618.62  0.999210
   1624.62  0.999210
   1630.63  0.999209
   1636.64  0.999209
   1642.64  0.999208
   1648.65  0.999207
   1654.65  0.999206
   1660.66  0.999205
   1666.67  0.999204
   1672.67  0.999203
   1678.68  0.999201
   1684.68  0.999199
   1690.69  0.999197
   1696.70  0.999195
   1702.70  0.999193
   1708.71  0.999190
   1714.71  0.999187
   1720.72  0.999183
   1726.73  0.999180
   1732.73  0.999176
   1738.74  0.999171
   1744.74  0.999166
   1750.75  0.999161
   1756.76  0.999156
   1762.76  0.999147
   1768.77  0.999137
   1774.77  0.999128
   1780.78  0.999119
   1786.79  0.999106
   1792.79  0.999085
   1798.80  0.999062
   1804.80  0.999039
   1810.81  0.999015
   1816.82  0.998909
   1822.82  0.998518
   1828.83  0.997821
   1834.83  0.996335
   1840.84  0.988024
   1846.85  0.988710
   1852.85  0.989338
   1858.86  0.989913
   1864.86  0.990270
   1870.87  0.990569
   1876.88  0.990853
   1882.88  0.991124
   1888.89  0.991383
   1894.90  0.991542
   1900.90  0.991675
   1906.91  0.991805
   1912.91  0.991931
   1918.92  0.992054
   1924.93  0.992150
   1930.93  0.992234
   1936.94  0.992316
   1942.94  0.992397
   1948.95  0.992477
   1954.96  0.992546
   1960.96  0.992606
   1966.97  0.992666
   1972.97  0.992725
   1978.98  0.992783
   1984.99  0.992838
   1990.99  0.992885
   1997.00  0.992932
   2003.00  0.992978
   2009.01  0.993024
   2015.02  0.993069
   2021.02  0.993108
   2027.03  0.993147
   2033.03  0.993185
   2039.04  0.993222
   2045.05  0.993260
   2051.05  0.993295
   2057.06  0.993327
   2063.06  0.993359
   2069.07  0.993391
   2075.08  0.993423
   2081.08  0.993454
   2087.09  0.993483
   2093.09  0.993512
   2099.10  0.993540
   2105.10  0.993568
   2111.11  0.993596
   2117.12  0.993623
   2123.12  0.993649
   2129.13  0.993674
   2135.14  0.993699
   2141.14  0.993723
   2147.15  0.993748
   2153.15  0.993771
   2159.16  0.993794
   2165.17  0.993816
   2171.17  0.993838
   2177.18  0.993861
   2183.18  0.993883
   2189.19  0.993903
   2195.20  0.993924
   2201.20  0.993944
   2207.21  0.993964
   2213.21  0.993984
   2219.22  0.994004
   2225.23  0.994023
   2231.23  0.994041
   2237.24  0.994060
   2243.24  0.994078
   2249.25  0.994096
   2255.26  0.994115
   2261.26  0.994132
   2267.27  0.994149
   2273.27  0.994166
   2279.28  0.994183
   2285.29  0.994200
   2291.29  0.994216
   2297.30  0.994232
   2303.30  0.994248
   2309.31  0.994264
   2315.32  0.994280
   2321.32  0.994295
   2327.33  0.994311
   2333.33  0.994326
   2339.34  0.994341
   2345.35  0.994355
   2351.35  0.994370
   2357.36  0.994385
   2363.36  0.994399
   2369.37  0.994413
   2375.38  0.994427
   2381.38  0.994441
   2387.39  0.994455
   2393.39  0.994469
   2399.40  0.994482
   2405.41  0.994496
   2411.41  0.994509
   2417.42  0.994522
   2423.42  0.994535
   2429.43  0.994548
   2435.44  0.994560
   2441.44  0.994573
   2447.45  0.994586
   2453.45  0.994598
   2459.46  0.994610
   2465.47  0.994623
   2471.47  0.994635
   2477.48  0.994647
   2483.48  0.994659
   2489.49  0.994671
   2495.50  0.994682
   2501.50  0.994694
   2507.51  0.994706
   2513.51  0.994717
   2519.52  0.994729
   2525.53  0.994740
   2531.53  0.994751
   2537.54  0.994762
   2543.54  0.994773
   2549.55  0.994784
   2555.56  0.994795
   2561.56  0.994806
   2567.57  0.994816
   2573.57  0.994827
   2579.58  0.994837
   2585.59  0.994848
   2591.59  0.994858
   2597.60  0.994869
   2603.60  0.994879
   2609.61  0.994889
   2615.62  0.994899
   2621.62  0.994910
   2627.63  0.994919
   2633.63  0.994929
   2639.64  0.994939
   2645.65  0.994949
   2651.65  0.994959
   2657.66  0.994969
   2663.66  0.994978
   2669.67  0.994988
   2675.68  0.994997
   2681.68  0.995007
   2687.69  0.995016
   2693.69  0.995025
   2699.70  0.995035
   2705.71  0.995044
   2711.71  0.995053
   2717.72  0.995062
   2723.72  0.995072
   2729.73  0.995081
   2735.74  0.995090
   2741.74  0.995099
   2747.75  0.995107
   2753.75  0.995116
   2759.76  0.995125
   2765.77  0.995134
   2771.77  0.995143
   2777.78  0.995151
   2783.78  0.995160
   2789.79  0.995168
   2795.80  0.995177
   2801.80  0.995185
   2807.81  0.995194
   2813.81  0.995202
   2819.82  0.995210
   2825.83  0.995219
   2831.83  0.995227
   2837.84  0.995235
   2843.84  0.995243
   2849.85  0.995251
   2855.86  0.995260
   2861.86  0.995268
   2867.87  0.995276
   2873.87  0.995284
   2879.88  0.995292
   2885.89  0.995299
   2891.89  0.995307
   2897.90  0.995315
   2903.90  0.995323
   2909.91  0.995331
   2915.92  0.995338
   2921.92  0.995346
   2927.93  0.995354
   2933.93  0.995361
   2939.94  0.995369
   2945.95  0.995376
   2951.95  0.995384
   2957.96  0.995392
   2963.96  0.995399
   2969.97  0.995406
   2975.98  0.995414
   2981.98  0.995421
   2987.99  0.995429
   2993.99  0.995436
   3000.00  0.995443
   3006.01  0.995450
   3012.01  0.995457
   3018.02  0.995465
   3024.02  0.995472
   3030.03  0.995479
   3036.04  0.995486
   3042.04  0.995493
   3048.05  0.995500
   3054.05  0.995507
   3060.06  0.995514
   3066.07  0.995521
   3072.07  0.995528
   3078.08  0.995535
   3084.08  0.995541
   3090.09  0.995548
   3096.10  0.995555
   3102.10  0.995562
   3108.11  0.995569
   3114.11  0.995575
   3120.12  0.995582
   3126.13  0.995589
   3132.13  0.995595
   3138.14  0.995602
   3144.14  0.995608
   3150.15  0.995615
   3156.16  0.995622
   3162.16  0.995628
   3168.17  0.995634
   3174.17  0.995641
   3180.18  0.995647
   3186.19  0.995654
   3192.19  0.995660
   3198.20  0.995667
   3204.20  0.995673
   3210.21  0.995679
   3216.22  0.995685
   3222.22  0.995692
   3228.23  0.995698
   3234.23  0.995704
   3240.24  0.995710
   3246.25  0.995717
   3252.25  0.995723
   3258.26  0.995729
   3264.26  0.995735
   3270.27  0.995741
   3276.28  0.995747
   3282.28  0.995753
   3288.29  0.995759
   3294.29  0.995765
   3300.30  0.995771
   3306.31  0.995777
   3312.31  0.995783
   3318.32  0.995789
   3324.32  0.995795
   3330.33  0.995801
   3336.34  0.995807
   3342.34  0.995813
   3348.35  0.995818
   3354.35  0.995825
   3360.36  0.995830
   3366.37  0.995836
   3372.37  0.995842
   3378.38  0.995847
   3384.38  0.995853
   3390.39  0.995859
   3396.40  0.995865
   3402.40  0.995870
   3408.41  0.995876
   3414.41  0.995881
   3420.42  0.995887
   3426.43  0.995893
   3432.43  0.995898
   3438.44  0.995904
   3444.44  0.995909
   3450.45  0.995915
   3456.46  0.995920
   3462.46  0.995926
   3468.47  0.995931
   3474.47  0.995937
   3480.48  0.995942
   3486.49  0.995947
   3492.49  0.995953
   3498.50  0.995958
   3504.50  0.995964
   3510.51  0.995969
   3516.52  0.995974
   3522.52  0.995980
   3528.53  0.995985
   3534.53  0.995990
   3540.54  0.995995
   3546.55  0.996001
   3552.55  0.996006
   3558.56  0.996011
   3564.56  0.996016
   3570.57  0.996022
   3576.58  0.996027
   3582.58  0.996032
   3588.59  0.996037
   3594.59  0.996042
   3600.60  0.996047
   3606.61  0.996052
   3612.61  0.996057
   3618.62  0.996063
   3624.62  0.996068
   3630.63  0.996073
   3636.64  0.996078
   3642.64  0.996083
   3648.65  0.996088
   3654.65  0.996093
   3660.66  0.996098
   3666.67  0.996103
   3672.67  0.996108
   3678.68  0.996113
   3684.68  0.996117
   3690.69  0.996122
   3696.70  0.996127
   3702.70  0.996132
   3708.71  0.996137
   3714.71  0.996142
   3720.72  0.996147
   3726.73  0.996151
   3732.73  0.996156
   3738.74  0.996161
   3744.74  0.996166
   3750.75  0.996170
   3756.76  0.996175
   3762.76  0.996180
   3768.77  0.996184
   3774.77  0.996189
   3780.78  0.996194
   3786.79  0.996199
   3792.79  0.996203
   3798.80  0.996208
   3804.80  0.996213
   3810.81  0.996217
   3816.82  0.996222
   3822.82  0.996227
   3828.83  0.996231
   3834.83  0.996236
   3840.84  0.996240
   3846.85  0.996245
   3852.85  0.996249
   3858.86  0.996254
   3864.86  0.996258
   3870.87  0.996263
   3876.88  0.996268
   3882.88  0.996272
   3888.89  0.996276
   3894.90  0.996281
   3900.90  0.996285
   3906.91  0.996290
   3912.91  0.996294
   3918.92  0.996299
   3924.93  0.996303
   3930.93  0.996307
   3936.94  0.996312
   3942.94  0.996316
   3948.95  0.996321
   3954.96  0.996325
   3960.96  0.996329
   3966.97  0.996334
   3972.97  0.996338
   3978.98  0.996342
   3984.99  0.996347
   3990.99  0.996351
   3997.00  0.996355
   4003.00  0.996359
   4009.01  0.996364
   4015.02  0.996368
   4021.02  0.996372
   4027.03  0.996376
   4033.03  0.996380
   4039.04  0.996385
   4045.05  0.996389
   4051.05  0.996393
   4057.06  0.996397
   4063.06  0.996401
   4069.07  0.996406
   4075.08  0.996410
   4081.08  0.996414
   4087.09  0.996418
   4093.09  0.996422
   4099.10  0.996426
   4105.11  0.996430
   4111.11  0.996434
   4117.12  0.996438
   4123.12  0.996442
   4129.13  0.996446
   4135.14  0.996451
   4141.14  0.996455
   4147.15  0.996459
   4153.15  0.996463
   4159.16  0.996467
   4165.17  0.996471
   4171.17  0.996475
   4177.18  0.996479
   4183.18  0.996482
   4189.19  0.996487
   4195.20  0.996490
   4201.20  0.996494
   4207.21  0.996498
   4213.21  0.996502
   4219.22  0.996506
   4225.23  0.996510
   4231.23  0.996514
   4237.24  0.996518
   4243.24  0.996521
   4249.25  0.996525
   4255.26  0.996529
   4261.26  0.996533
   4267.27  0.996537
   4273.27  0.996541
   4279.28  0.996545
   4285.29  0.996548
   4291.29  0.996552
   4297.30  0.996556
   4303.30  0.996560
   4309.31  0.996564
   4315.32  0.996567
   4321.32  0.996571
   4327.33  0.996575
   4333.33  0.996579
   4339.34  0.996582
   4345.35  0.996586
   4351.35  0.996590
   4357.36  0.996593
   4363.36  0.996597
   4369.37  0.996601
   4375.38  0.996604
   4381.38  0.996608
   4387.39  0.996612
   4393.39  0.996616
   4399.40  0.996619
   4405.41  0.996623
   4411.41  0.996626
   4417.42  0.996630
   4423.42  0.996634
   4429.43  0.996637
   4435.44  0.996641
   4441.44  0.996644
   4447.45  0.996648
   4453.45  0.996652
   4459.46  0.996655
   4465.47  0.996659
   4471.47  0.996662
   4477.48  0.996666
   4483.48  0.996669
   4489.49  0.996673
   4495.50  0.996677
   4501.50  0.996680
   4507.51  0.996684
   4513.51  0.996687
   4519.52  0.996690
   4525.53  0.996694
   4531.53  0.996697
   4537.54  0.996701
   4543.54  0.996704
   4549.55  0.996708
   4555.56  0.996711
   4561.56  0.996715
   4567.57  0.996718
   4573.57  0.996721
   4579.58  0.996725
   4585.59  0.996728
   4591.59  0.996732
   4597.60  0.996735
   4603.60  0.996739
   4609.61  0.996742
   4615.62  0.996745
   4621.62  0.996749
   4627.63  0.996752
   4633.63  0.996755
   4639.64  0.996759
   4645.65  0.996762
   4651.65  0.996765
   4657.66  0.996769
   4663.66  0.996772
   4669.67  0.996775
   4675.68  0.996779
   4681.68  0.996782
   4687.69  0.996785
   4693.69  0.996789
   4699.70  0.996792
   4705.71  0.996795
   4711.71  0.996798
   4717.72  0.996801
   4723.72  0.996805
   4729.73  0.996808
   4735.74  0.996811
   4741.74  0.996814
   4747.75  0.996818
   4753.75  0.996821
   4759.76  0.996824
   4765.77  0.996827
   4771.77  0.996831
   4777.78  0.996834
   4783.78  0.996837
   4789.79  0.996840
   4795.80  0.996843
   4801.80  0.996846
   4807.81  0.996850
   4813.81  0.996853
   4819.82  0.996856
   4825.83  0.996859
   4831.83  0.996862
   4837.84  0.996865
   4843.84  0.996868
   4849.85  0.996871
   4855.86  0.996874
   4861.86  0.996878
   4867.87  0.996881
   4873.87  0.996884
   4879.88  0.996887
   4885.89  0.996890
   4891.89  0.996893
   4897.90  0.996896
   4903.90  0.996899
   4909.91  0.996902
   4915.92  0.996905
   4921.92  0.996908
   4927.93  0.996911
   4933.93  0.996914
   4939.94  0.996917
   4945.95  0.996920
   4951.95  0.996923
   4957.96  0.996926
   4963.96  0.996929
   4969.97  0.996932
   4975.98  0.996935
   4981.98  0.996938
   4987.99  0.996941
   4993.99  0.996944
   5000.00  0.996947
   5006.01  0.996950
   5012.01  0.996953
   5018.02  0.996956
   5024.02  0.996959
   5030.03  0.996962
   5036.04  0.996965
   5042.04  0.996967
   5048.05  0.996971
   5054.05  0.996973
   5060.06  0.996976
   5066.07  0.996979
   5072.07  0.996982
   5078.08  0.996985
   5084.08  0.996988
   5090.09  0.996991
   5096.10  0.996994
   5102.10  0.996996
   5108.11  0.997000
   5114.11  0.997002
   5120.12  0.997005
   5126.13  0.997008
   5132.13  0.997011
   5138.14  0.997014
   5144.14  0.997016
   5150.15  0.997019
   5156.16  0.997022
   5162.16  0.997025
   5168.17  0.997028
   5174.17  0.997030
   5180.18  0.997033
   5186.19  0.997036
   5192.19  0.997039
   5198.20  0.997042
   5204.20  0.997044
   5210.21  0.997047
   5216.22  0.997050
   5222.22  0.997053
   5228.23  0.997055
   5234.23  0.997058
   5240.24  0.997061
   5246.25  0.997064
   5252.25  0.997066
   5258.26  0.997069
   5264.26  0.997072
   5270.27  0.997075
   5276.28  0.997077
   5282.28  0.997080
   5288.29  0.997082
   5294.29  0.997085
   5300.30  0.997088
   5306.31  0.997091
   5312.31  0.997093
   5318.32  0.997096
   5324.32  0.997099
   5330.33  0.997101
   5336.34  0.997104
   5342.34  0.997106
   5348.35  0.997109
   5354.35  0.997112
   5360.36  0.997115
   5366.37  0.997117
   5372.37  0.997120
   5378.38  0.997123
   5384.38  0.997125
   5390.39  0.997128
   5396.40  0.997130
   5402.40  0.997133
   5408.41  0.997135
   5414.41  0.997138
   5420.42  0.997141
   5426.43  0.997143
   5432.43  0.997146
   5438.44  0.997148
   5444.44  0.997151
   5450.45  0.997154
   5456.46  0.997156
   5462.46  0.997159
   5468.47  0.997161
   5474.47  0.997164
   5480.48  0.997166
   5486.49  0.997169
   5492.49  0.997171
   5498.50  0.997174
   5504.50  0.997177
   5510.51  0.997179
   5516.52  0.997182
   5522.52  0.997184
   5528.53  0.997187
   5534.53  0.997189
   5540.54  0.997192
   5546.55  0.997194
   5552.55  0.997196
   5558.56  0.997199
   5564.56  0.997201
   5570.57  0.997204
   5576.58  0.997206
   5582.58  0.997209
   5588.59  0.997211
   5594.59  0.997214
   5600.60  0.997216
   5606.61  0.997219
   5612.61  0.997221
   5618.62  0.997224
   5624.62  0.997226
   5630.63  0.997229
   5636.64  0.997231
   5642.64  0.997234
   5648.65  0.997236
   5654.65  0.997238
   5660.66  0.997241
   5666.67  0.997243
   5672.67  0.997246
   5678.68  0.997248
   5684.69  0.997250
   5690.69  0.997252
   5696.70  0.997255
   5702.70  0.997257
   5708.71  0.997260
   5714.71  0.997262
   5720.72  0.997264
   5726.73  0.997267
   5732.73  0.997269
   5738.74  0.997272
   5744.75  0.997274
   5750.75  0.997276
   5756.76  0.997279
   5762.76  0.997281
   5768.77  0.997283
   5774.77  0.997286
   5780.78  0.997288
   5786.79  0.997290
   5792.79  0.997293
   5798.80  0.997295
   5804.81  0.997297
   5810.81  0.997300
   5816.82  0.997302
   5822.82  0.997304
   5828.83  0.997307
   5834.83  0.997309
   5840.84  0.997311
   5846.85  0.997313
   5852.85  0.997316
   5858.86  0.997318
   5864.87  0.997320
   5870.87  0.997322
   5876.88  0.997325
   5882.88  0.997327
   5888.89  0.997329
   5894.90  0.997332
   5900.90  0.997334
   5906.91  0.997336
   5912.91  0.997338
   5918.92  0.997341
   5924.93  0.997343
   5930.93  0.997345
   5936.94  0.997347
   5942.94  0.997349
   5948.95  0.997352
   5954.96  0.997354
   5960.96  0.997356
   5966.97  0.997358
   5972.97  0.997360
   5978.98  0.997363
   5984.99  0.997365
   5990.99  0.997367
   5997.00  0.997369
   6003.00  0.997372
   6009.01  0.997374
   6015.02  0.997376
   6021.02  0.997378
   6027.03  0.997380
   6033.03  0.997383
   6039.04  0.997385
   6045.05  0.997387
   6051.05  0.997389
   6057.06  0.997391
   6063.06  0.997393
   6069.07  0.997396
   6075.08  0.997398
   6081.08  0.997400
   6087.09  0.997402
   6093.09  0.997404
   6099.10  0.997406
   6105.11  0.997408
   6111.11  0.997411
   6117.12  0.997413
   6123.12  0.997415
   6129.13  0.997417
   6135.14  0.997419
   6141.14  0.997421
   6147.15  0.997423
   6153.15  0.997425
   6159.16  0.997428
   6165.17  0.997429
   6171.17  0.997432
   6177.18  0.997434
   6183.18  0.997436
   6189.19  0.997438
   6195.20  0.997440
   6201.20  0.997442
   6207.21  0.997444
   6213.21  0.997446
   6219.22  0.997448
   6225.23  0.997450
   6231.23  0.997452
   6237.24  0.997455
   6243.24  0.997456
   6249.25  0.997459
   6255.26  0.997461
   6261.26  0.997463
   6267.27  0.997465
   6273.27  0.997467
   6279.28  0.997469
   6285.29  0.997471
   6291.29  0.997473
   6297.30  0.997475
   6303.30  0.997477
   6309.31  0.997479
   6315.32  0.997481
   6321.32  0.997483
   6327.33  0.997485
   6333.33  0.997487
   6339.34  0.997489
   6345.35  0.997491
   6351.35  0.997493
   6357.36  0.997495
   6363.36  0.997497
   6369.37  0.997498
   6375.38  0.997501
   6381.38  0.997503
   6387.39  0.997505
   6393.39  0.997507
   6399.40  0.997509
   6405.41  0.997511
   6411.41  0.997513
   6417.42  0.997515
   6423.42  0.997517
   6429.43  0.997519
   6435.44  0.997521
   6441.44  0.997523
   6447.45  0.997525
   6453.45  0.997526
   6459.46  0.997528
   6465.47  0.997530
   6471.47  0.997532
   6477.48  0.997534
   6483.48  0.997536
   6489.49  0.997538
   6495.50  0.997540
   6501.50  0.997542
   6507.51  0.997544
   6513.51  0.997545
   6519.52  0.997547
   6525.53  0.997549
   6531.53  0.997552
   6537.54  0.997553
   6543.54  0.997555
   6549.55  0.997557
   6555.56  0.997559
   6561.56  0.997561
   6567.57  0.997563
   6573.57  0.997564
   6579.58  0.997567
   6585.59  0.997568
   6591.59  0.997570
   6597.60  0.997572
   6603.60  0.997574
   6609.61  0.997576
   6615.62  0.997578
   6621.62  0.997580
   6627.63  0.997581
   6633.63  0.997583
   6639.64  0.997585
   6645.65  0.997587
   6651.65  0.997589
   6657.66  0.997591
   6663.66  0.997593
   6669.67  0.997595
   6675.68  0.997596
   6681.68  0.997598
   6687.69  0.997600
