Si Rho=2.33, Sig=0.nm, P=0., 2.deg
 Photon energy (eV), Reflectivity
   1000.00  0.101298
   1006.01  9.659316E-02
   1012.01  9.219151E-02
   1018.02  8.807050E-02
   1024.02  8.419900E-02
   1030.03  8.056448E-02
   1036.04  7.714625E-02
   1042.04  7.392382E-02
   1048.05  7.088744E-02
   1054.05  6.801964E-02
   1060.06  6.530730E-02
   1066.07  6.274355E-02
   1072.07  6.031291E-02
   1078.08  5.800810E-02
   1084.08  5.582370E-02
   1090.09  5.374431E-02
   1096.10  5.176794E-02
   1102.10  4.989027E-02
   1108.11  4.810937E-02
   1114.11  4.641549E-02
   1120.12  4.480225E-02
   1126.13  4.326518E-02
   1132.13  4.179924E-02
   1138.14  4.040005E-02
   1144.14  3.906291E-02
   1150.15  3.778496E-02
   1156.16  3.656295E-02
   1162.16  3.539273E-02
   1168.17  3.427215E-02
   1174.17  3.319886E-02
   1180.18  3.216958E-02
   1186.19  3.118230E-02
   1192.19  3.023519E-02
   1198.20  2.932534E-02
   1204.20  2.845078E-02
   1210.21  2.761068E-02
   1216.22  2.680287E-02
   1222.22  2.602489E-02
   1228.23  2.527667E-02
   1234.23  2.455675E-02
   1240.24  2.386206E-02
   1246.25  2.319313E-02
   1252.25  2.254876E-02
   1258.26  2.192673E-02
   1264.26  2.132660E-02
   1270.27  2.074793E-02
   1276.28  2.018930E-02
   1282.28  1.964912E-02
   1288.29  1.912776E-02
   1294.29  1.862442E-02
   1300.30  1.813667E-02
   1306.31  1.766523E-02
   1312.31  1.720968E-02
   1318.32  1.676866E-02
   1324.32  1.634114E-02
   1330.33  1.592769E-02
   1336.34  1.552776E-02
   1342.34  1.513937E-02
   1348.35  1.476318E-02
   1354.35  1.439903E-02
   1360.36  1.404603E-02
   1366.37  1.370272E-02
   1372.37  1.337019E-02
   1378.38  1.304800E-02
   1384.38  1.273472E-02
   1390.39  1.243022E-02
   1396.40  1.213504E-02
   1402.40  1.184883E-02
   1408.41  1.156962E-02
   1414.41  1.129852E-02
   1420.42  1.103549E-02
   1426.43  1.078014E-02
   1432.43  1.053050E-02
   1438.44  1.028819E-02
   1444.44  1.005296E-02
   1450.45  9.824098E-03
   1456.46  9.600235E-03
   1462.46  9.382832E-03
   1468.47  9.171650E-03
   1474.47  8.965780E-03
   1480.48  8.764285E-03
   1486.49  8.568479E-03
   1492.49  8.378182E-03
   1498.50  8.192388E-03
   1504.50  8.010305E-03
   1510.51  7.833288E-03
   1516.52  7.661170E-03
   1522.52  7.492934E-03
   1528.53  7.327564E-03
   1534.53  7.166742E-03
   1540.54  7.010313E-03
   1546.55  6.857482E-03
   1552.55  6.706638E-03
   1558.56  6.559903E-03
   1564.56  6.417130E-03
   1570.57  6.278000E-03
   1576.58  6.139738E-03
   1582.58  6.005226E-03
   1588.59  5.874312E-03
   1594.59  5.746911E-03
   1600.60  5.620025E-03
   1606.61  5.496002E-03
   1612.61  5.375305E-03
   1618.62  5.257828E-03
   1624.62  5.141307E-03
   1630.63  5.026088E-03
   1636.64  4.913976E-03
   1642.64  4.804875E-03
   1648.65  4.697830E-03
   1654.65  4.589714E-03
   1660.66  4.484537E-03
   1666.67  4.382220E-03
   1672.67  4.282656E-03
   1678.68  4.181350E-03
   1684.68  4.081281E-03
   1690.69  3.983994E-03
   1696.70  3.889383E-03
   1702.70  3.795563E-03
   1708.71  3.698322E-03
   1714.71  3.603889E-03
   1720.72  3.512169E-03
   1726.73  3.423070E-03
   1732.73  3.329033E-03
   1738.74  3.233810E-03
   1744.74  3.141514E-03
   1750.75  3.052051E-03
   1756.76  2.965326E-03
   1762.76  2.862125E-03
   1768.77  2.762327E-03
   1774.77  2.666010E-03
   1780.78  2.573036E-03
   1786.79  2.471631E-03
   1792.79  2.341724E-03
   1798.80  2.217804E-03
   1804.80  2.099595E-03
   1810.81  1.986840E-03
   1816.82  1.680890E-03
   1822.82  1.062885E-03
   1828.83  6.055298E-04
   1834.83  2.887374E-04
   1840.84  1.654772E-03
   1846.85  1.770312E-03
   1852.85  1.889879E-03
   1858.86  2.013302E-03
   1864.86  2.086623E-03
   1870.87  2.148008E-03
   1876.88  2.209722E-03
   1882.88  2.271711E-03
   1888.89  2.333932E-03
   1894.90  2.360341E-03
   1900.90  2.377621E-03
   1906.91  2.394648E-03
   1912.91  2.411406E-03
   1918.92  2.427891E-03
   1924.93  2.432909E-03
   1930.93  2.433237E-03
   1936.94  2.433435E-03
   1942.94  2.433486E-03
   1948.95  2.433409E-03
   1954.96  2.428929E-03
   1960.96  2.420752E-03
   1966.97  2.412557E-03
   1972.97  2.404362E-03
   1978.98  2.396150E-03
   1984.99  2.386604E-03
   1990.99  2.373738E-03
   1997.00  2.360951E-03
   2003.00  2.348238E-03
   2009.01  2.335603E-03
   2015.02  2.323044E-03
   2021.02  2.307723E-03
   2027.03  2.292347E-03
   2033.03  2.277115E-03
   2039.04  2.262009E-03
   2045.05  2.247040E-03
   2051.05  2.231125E-03
   2057.06  2.214370E-03
   2063.06  2.197788E-03
   2069.07  2.181368E-03
   2075.08  2.165114E-03
   2081.08  2.149029E-03
   2087.09  2.131557E-03
   2093.09  2.114284E-03
   2099.10  2.097200E-03
   2105.10  2.080308E-03
   2111.11  2.063595E-03
   2117.12  2.046611E-03
   2123.12  2.029111E-03
   2129.13  2.011819E-03
   2135.14  1.994720E-03
   2141.14  1.977832E-03
   2147.15  1.961126E-03
   2153.15  1.943992E-03
   2159.16  1.926791E-03
   2165.17  1.909798E-03
   2171.17  1.893010E-03
   2177.18  1.876420E-03
   2183.18  1.860031E-03
   2189.19  1.843199E-03
   2195.20  1.826515E-03
   2201.20  1.810039E-03
   2207.21  1.793764E-03
   2213.21  1.777688E-03
   2219.22  1.761779E-03
   2225.23  1.745547E-03
   2231.23  1.729511E-03
   2237.24  1.713679E-03
   2243.24  1.698038E-03
   2249.25  1.682586E-03
   2255.26  1.667302E-03
   2261.26  1.651795E-03
   2267.27  1.636478E-03
   2273.27  1.621350E-03
   2279.28  1.606409E-03
   2285.29  1.591657E-03
   2291.29  1.577083E-03
   2297.30  1.562354E-03
   2303.30  1.547797E-03
   2309.31  1.533429E-03
   2315.32  1.519238E-03
   2321.32  1.505218E-03
   2327.33  1.491370E-03
   2333.33  1.477459E-03
   2339.34  1.463661E-03
   2345.35  1.450034E-03
   2351.35  1.436580E-03
   2357.36  1.423283E-03
   2363.36  1.410154E-03
   2369.37  1.397060E-03
   2375.38  1.384017E-03
   2381.38  1.371134E-03
   2387.39  1.358408E-03
   2393.39  1.345838E-03
   2399.40  1.333429E-03
   2405.41  1.321134E-03
   2411.41  1.308822E-03
   2417.42  1.296664E-03
   2423.42  1.284653E-03
   2429.43  1.272792E-03
   2435.44  1.261073E-03
   2441.44  1.249498E-03
   2447.45  1.237948E-03
   2453.45  1.226489E-03
   2459.46  1.215167E-03
   2465.47  1.203986E-03
   2471.47  1.192938E-03
   2477.48  1.182025E-03
   2483.48  1.171223E-03
   2489.49  1.160436E-03
   2495.50  1.149775E-03
   2501.50  1.139244E-03
   2507.51  1.128839E-03
   2513.51  1.118558E-03
   2519.52  1.108401E-03
   2525.53  1.098317E-03
   2531.53  1.088287E-03
   2537.54  1.078378E-03
   2543.54  1.068584E-03
   2549.55  1.058908E-03
   2555.56  1.049345E-03
   2561.56  1.039902E-03
   2567.57  1.030500E-03
   2573.57  1.021179E-03
   2579.58  1.011965E-03
   2585.59  1.002859E-03
   2591.59  9.938597E-04
   2597.60  9.849678E-04
   2603.60  9.761776E-04
   2609.61  9.674285E-04
   2615.62  9.587592E-04
   2621.62  9.501893E-04
   2627.63  9.417179E-04
   2633.63  9.333477E-04
   2639.64  9.250747E-04
   2645.65  9.168939E-04
   2651.65  9.087604E-04
   2657.66  9.007009E-04
   2663.66  8.927353E-04
   2669.67  8.848591E-04
   2675.68  8.770747E-04
   2681.68  8.693754E-04
   2687.69  8.617688E-04
   2693.69  8.542120E-04
   2699.70  8.467143E-04
   2705.71  8.393048E-04
   2711.71  8.319764E-04
   2717.72  8.247343E-04
   2723.72  8.175721E-04
   2729.73  8.104887E-04
   2735.74  8.034701E-04
   2741.74  7.964947E-04
   2747.75  7.895993E-04
   2753.75  7.827800E-04
   2759.76  7.760363E-04
   2765.77  7.693676E-04
   2771.77  7.627761E-04
   2777.78  7.562549E-04
   2783.78  7.497640E-04
   2789.79  7.433419E-04
   2795.80  7.369950E-04
   2801.80  7.307135E-04
   2807.81  7.245026E-04
   2813.81  7.183589E-04
   2819.82  7.122845E-04
   2825.83  7.062551E-04
   2831.83  7.002759E-04
   2837.84  6.943645E-04
   2843.84  6.885120E-04
   2849.85  6.827233E-04
   2855.86  6.769978E-04
   2861.86  6.713381E-04
   2867.87  6.657347E-04
   2873.87  6.601642E-04
   2879.88  6.546522E-04
   2885.89  6.491953E-04
   2891.89  6.437990E-04
   2897.90  6.384624E-04
   2903.90  6.331825E-04
   2909.91  6.279557E-04
   2915.92  6.227816E-04
   2921.92  6.176375E-04
   2927.93  6.125484E-04
   2933.93  6.075136E-04
   2939.94  6.025327E-04
   2945.95  5.976026E-04
   2951.95  5.927230E-04
   2957.96  5.878959E-04
   2963.96  5.831129E-04
   2969.97  5.783656E-04
   2975.98  5.736672E-04
   2981.98  5.690145E-04
   2987.99  5.644151E-04
   2993.99  5.598607E-04
   3000.00  5.553537E-04
   3006.01  5.508962E-04
   3012.01  5.464719E-04
   3018.02  5.420832E-04
   3024.02  5.377406E-04
   3030.03  5.334408E-04
   3036.04  5.291862E-04
   3042.04  5.249737E-04
   3048.05  5.208058E-04
   3054.05  5.166793E-04
   3060.06  5.125890E-04
   3066.07  5.085269E-04
   3072.07  5.045080E-04
   3078.08  5.005295E-04
   3084.08  4.965885E-04
   3090.09  4.926898E-04
   3096.10  4.888303E-04
   3102.10  4.850075E-04
   3108.11  4.812236E-04
   3114.11  4.774635E-04
   3120.12  4.737393E-04
   3126.13  4.700530E-04
   3132.13  4.664045E-04
   3138.14  4.627887E-04
   3144.14  4.592122E-04
   3150.15  4.556681E-04
   3156.16  4.521603E-04
   3162.16  4.486794E-04
   3168.17  4.452253E-04
   3174.17  4.418068E-04
   3180.18  4.384217E-04
   3186.19  4.350695E-04
   3192.19  4.317524E-04
   3198.20  4.284655E-04
   3204.20  4.252085E-04
   3210.21  4.219836E-04
   3216.22  4.187812E-04
   3222.22  4.156084E-04
   3228.23  4.124666E-04
   3234.23  4.093564E-04
   3240.24  4.062768E-04
   3246.25  4.032235E-04
   3252.25  4.002029E-04
   3258.26  3.972080E-04
   3264.26  3.942389E-04
   3270.27  3.912929E-04
   3276.28  3.883743E-04
   3282.28  3.854853E-04
   3288.29  3.826210E-04
   3294.29  3.797859E-04
   3300.30  3.769774E-04
   3306.31  3.741932E-04
   3312.31  3.714374E-04
   3318.32  3.687011E-04
   3324.32  3.659845E-04
   3330.33  3.632958E-04
   3336.34  3.606326E-04
   3342.34  3.579948E-04
   3348.35  3.553803E-04
   3354.35  3.527885E-04
   3360.36  3.502217E-04
   3366.37  3.476797E-04
   3372.37  3.451559E-04
   3378.38  3.426524E-04
   3384.38  3.401732E-04
   3390.39  3.377159E-04
   3396.40  3.352826E-04
   3402.40  3.328708E-04
   3408.41  3.304808E-04
   3414.41  3.281141E-04
   3420.42  3.257667E-04
   3426.43  3.234363E-04
   3432.43  3.211249E-04
   3438.44  3.188364E-04
   3444.44  3.165685E-04
   3450.45  3.143192E-04
   3456.46  3.120923E-04
   3462.46  3.098836E-04
   3468.47  3.076953E-04
   3474.47  3.055249E-04
   3480.48  3.033743E-04
   3486.49  3.012397E-04
   3492.49  2.991227E-04
   3498.50  2.970252E-04
   3504.50  2.949471E-04
   3510.51  2.928864E-04
   3516.52  2.908447E-04
   3522.52  2.888202E-04
   3528.53  2.868144E-04
   3534.53  2.848237E-04
   3540.54  2.828498E-04
   3546.55  2.808924E-04
   3552.55  2.789499E-04
   3558.56  2.770273E-04
   3564.56  2.751194E-04
   3570.57  2.732294E-04
   3576.58  2.713538E-04
   3582.58  2.694959E-04
   3588.59  2.676557E-04
   3594.59  2.658276E-04
   3600.60  2.640135E-04
   3606.61  2.622131E-04
   3612.61  2.604319E-04
   3618.62  2.586642E-04
   3624.62  2.569119E-04
   3630.63  2.551730E-04
   3636.64  2.534526E-04
   3642.64  2.517437E-04
   3648.65  2.500498E-04
   3654.65  2.483689E-04
   3660.66  2.467011E-04
   3666.67  2.450478E-04
   3672.67  2.434075E-04
   3678.68  2.417815E-04
   3684.68  2.401681E-04
   3690.69  2.385708E-04
   3696.70  2.369860E-04
   3702.70  2.354135E-04
   3708.71  2.338551E-04
   3714.71  2.323072E-04
   3720.72  2.307715E-04
   3726.73  2.292479E-04
   3732.73  2.277380E-04
   3738.74  2.262400E-04
   3744.74  2.247555E-04
   3750.75  2.232829E-04
   3756.76  2.218219E-04
   3762.76  2.203725E-04
   3768.77  2.189364E-04
   3774.77  2.175085E-04
   3780.78  2.160936E-04
   3786.79  2.146900E-04
   3792.79  2.132962E-04
   3798.80  2.119168E-04
   3804.80  2.105469E-04
   3810.81  2.091866E-04
   3816.82  2.078403E-04
   3822.82  2.065036E-04
   3828.83  2.051776E-04
   3834.83  2.038608E-04
   3840.84  2.025549E-04
   3846.85  2.012581E-04
   3852.85  1.999734E-04
   3858.86  1.986993E-04
   3864.86  1.974341E-04
   3870.87  1.961794E-04
   3876.88  1.949351E-04
   3882.88  1.936995E-04
   3888.89  1.924757E-04
   3894.90  1.912590E-04
   3900.90  1.900510E-04
   3906.91  1.888530E-04
   3912.91  1.876651E-04
   3918.92  1.864871E-04
   3924.93  1.853175E-04
   3930.93  1.841578E-04
   3936.94  1.830064E-04
   3942.94  1.818632E-04
   3948.95  1.807311E-04
   3954.96  1.796072E-04
   3960.96  1.784900E-04
   3966.97  1.773822E-04
   3972.97  1.762825E-04
   3978.98  1.751922E-04
   3984.99  1.741098E-04
   3990.99  1.730366E-04
   3997.00  1.719699E-04
   4003.00  1.709138E-04
   4009.01  1.698640E-04
   4015.02  1.688233E-04
   4021.02  1.677889E-04
   4027.03  1.667633E-04
   4033.03  1.657440E-04
   4039.04  1.647335E-04
   4045.05  1.637305E-04
   4051.05  1.627350E-04
   4057.06  1.617481E-04
   4063.06  1.607687E-04
   4069.07  1.597964E-04
   4075.08  1.588301E-04
   4081.08  1.578737E-04
   4087.09  1.569218E-04
   4093.09  1.559769E-04
   4099.10  1.550405E-04
   4105.11  1.541097E-04
   4111.11  1.531860E-04
   4117.12  1.522706E-04
   4123.12  1.513621E-04
   4129.13  1.504578E-04
   4135.14  1.495630E-04
   4141.14  1.486737E-04
   4147.15  1.477912E-04
   4153.15  1.469154E-04
   4159.16  1.460450E-04
   4165.17  1.451799E-04
   4171.17  1.443228E-04
   4177.18  1.434710E-04
   4183.18  1.426270E-04
   4189.19  1.417882E-04
   4195.20  1.409559E-04
   4201.20  1.401301E-04
   4207.21  1.393094E-04
   4213.21  1.384963E-04
   4219.22  1.376870E-04
   4225.23  1.368841E-04
   4231.23  1.360874E-04
   4237.24  1.352957E-04
   4243.24  1.345102E-04
   4249.25  1.337309E-04
   4255.26  1.329577E-04
   4261.26  1.321881E-04
   4267.27  1.314272E-04
   4273.27  1.306685E-04
   4279.28  1.299171E-04
   4285.29  1.291705E-04
   4291.29  1.284285E-04
   4297.30  1.276925E-04
   4303.30  1.269612E-04
   4309.31  1.262345E-04
   4315.32  1.255149E-04
   4321.32  1.247998E-04
   4327.33  1.240894E-04
   4333.33  1.233847E-04
   4339.34  1.226844E-04
   4345.35  1.219899E-04
   4351.35  1.212987E-04
   4357.36  1.206131E-04
   4363.36  1.199319E-04
   4369.37  1.192551E-04
   4375.38  1.185838E-04
   4381.38  1.179169E-04
   4387.39  1.172543E-04
   4393.39  1.165972E-04
   4399.40  1.159444E-04
   4405.41  1.152970E-04
   4411.41  1.146527E-04
   4417.42  1.140137E-04
   4423.42  1.133789E-04
   4429.43  1.127482E-04
   4435.44  1.121217E-04
   4441.44  1.114993E-04
   4447.45  1.108822E-04
   4453.45  1.102691E-04
   4459.46  1.096601E-04
   4465.47  1.090551E-04
   4471.47  1.084552E-04
   4477.48  1.078582E-04
   4483.48  1.072663E-04
   4489.49  1.066773E-04
   4495.50  1.060932E-04
   4501.50  1.055120E-04
   4507.51  1.049357E-04
   4513.51  1.043634E-04
   4519.52  1.037937E-04
   4525.53  1.032290E-04
   4531.53  1.026681E-04
   4537.54  1.021110E-04
   4543.54  1.015566E-04
   4549.55  1.010070E-04
   4555.56  1.004612E-04
   4561.56  9.991899E-05
   4567.57  9.938054E-05
   4573.57  9.884470E-05
   4579.58  9.831356E-05
   4585.59  9.778501E-05
   4591.59  9.726004E-05
   4597.60  9.673979E-05
   4603.60  9.622099E-05
   4609.61  9.570786E-05
   4615.62  9.519724E-05
   4621.62  9.468908E-05
   4627.63  9.418553E-05
   4633.63  9.368544E-05
   4639.64  9.318777E-05
   4645.65  9.269462E-05
   4651.65  9.220284E-05
   4657.66  9.171555E-05
   4663.66  9.123168E-05
   4669.67  9.075014E-05
   4675.68  9.027199E-05
   4681.68  8.979722E-05
   4687.69  8.932579E-05
   4693.69  8.885769E-05
   4699.70  8.839188E-05
   4705.71  8.792940E-05
   4711.71  8.747020E-05
   4717.72  8.701428E-05
   4723.72  8.655961E-05
   4729.73  8.610814E-05
   4735.74  8.566094E-05
   4741.74  8.521594E-05
   4747.75  8.477412E-05
   4753.75  8.433550E-05
   4759.76  8.389907E-05
   4765.77  8.346575E-05
   4771.77  8.303559E-05
   4777.78  8.260659E-05
   4783.78  8.218169E-05
   4789.79  8.175891E-05
   4795.80  8.134020E-05
   4801.80  8.092258E-05
   4807.81  8.050803E-05
   4813.81  8.009553E-05
   4819.82  7.968706E-05
   4825.83  7.928062E-05
   4831.83  7.887624E-05
   4837.84  7.847482E-05
   4843.84  7.807640E-05
   4849.85  7.767900E-05
   4855.86  7.728553E-05
   4861.86  7.689405E-05
   4867.87  7.650548E-05
   4873.87  7.611886E-05
   4879.88  7.573516E-05
   4885.89  7.535246E-05
   4891.89  7.497452E-05
   4897.90  7.459755E-05
   4903.90  7.422342E-05
   4909.91  7.385028E-05
   4915.92  7.348089E-05
   4921.92  7.311339E-05
   4927.93  7.274868E-05
   4933.93  7.238584E-05
   4939.94  7.202486E-05
   4945.95  7.166665E-05
   4951.95  7.131026E-05
   4957.96  7.095661E-05
   4963.96  7.060479E-05
   4969.97  7.025478E-05
   4975.98  6.990747E-05
   4981.98  6.956196E-05
   4987.99  6.921822E-05
   4993.99  6.887718E-05
   5000.00  6.853879E-05
   5006.01  6.820127E-05
   5012.01  6.786639E-05
   5018.02  6.753413E-05
   5024.02  6.720271E-05
   5030.03  6.687479E-05
   5036.04  6.654771E-05
   5042.04  6.622232E-05
   5048.05  6.589950E-05
   5054.05  6.557840E-05
   5060.06  6.525981E-05
   5066.07  6.494294E-05
   5072.07  6.462772E-05
   5078.08  6.431415E-05
   5084.08  6.400311E-05
   5090.09  6.369370E-05
   5096.10  6.338592E-05
   5102.10  6.308065E-05
   5108.11  6.277696E-05
   5114.11  6.247491E-05
   5120.12  6.217446E-05
   5126.13  6.187559E-05
   5132.13  6.157832E-05
   5138.14  6.128433E-05
   5144.14  6.099107E-05
   5150.15  6.069936E-05
   5156.16  6.041007E-05
   5162.16  6.012232E-05
   5168.17  5.983610E-05
   5174.17  5.955145E-05
   5180.18  5.926914E-05
   5186.19  5.898753E-05
   5192.19  5.870826E-05
   5198.20  5.843052E-05
   5204.20  5.815426E-05
   5210.21  5.787867E-05
   5216.22  5.760623E-05
   5222.22  5.733527E-05
   5228.23  5.706495E-05
   5234.23  5.679693E-05
   5240.24  5.653037E-05
   5246.25  5.626527E-05
   5252.25  5.600161E-05
   5258.26  5.573940E-05
   5264.26  5.547943E-05
   5270.27  5.522008E-05
   5276.28  5.496296E-05
   5282.28  5.470646E-05
   5288.29  5.445217E-05
   5294.29  5.419929E-05
   5300.30  5.394858E-05
   5306.31  5.369770E-05
   5312.31  5.344978E-05
   5318.32  5.320245E-05
   5324.32  5.295650E-05
   5330.33  5.271190E-05
   5336.34  5.246870E-05
   5342.34  5.222761E-05
   5348.35  5.198790E-05
   5354.35  5.174872E-05
   5360.36  5.151167E-05
   5366.37  5.127518E-05
   5372.37  5.104080E-05
   5378.38  5.080696E-05
   5384.38  5.057521E-05
   5390.39  5.034478E-05
   5396.40  5.011565E-05
   5402.40  4.988705E-05
   5408.41  4.966051E-05
   5414.41  4.943526E-05
   5420.42  4.921129E-05
   5426.43  4.898785E-05
   5432.43  4.876643E-05
   5438.44  4.854629E-05
   5444.44  4.832664E-05
   5450.45  4.810828E-05
   5456.46  4.789189E-05
   5462.46  4.767602E-05
   5468.47  4.746212E-05
   5474.47  4.724873E-05
   5480.48  4.703657E-05
   5486.49  4.682637E-05
   5492.49  4.661593E-05
   5498.50  4.640816E-05
   5504.50  4.620087E-05
   5510.51  4.599480E-05
   5516.52  4.578993E-05
   5522.52  4.558626E-05
   5528.53  4.538378E-05
   5534.53  4.518175E-05
   5540.54  4.498165E-05
   5546.55  4.478199E-05
   5552.55  4.458350E-05
   5558.56  4.438619E-05
   5564.56  4.419077E-05
   5570.57  4.399579E-05
   5576.58  4.380196E-05
   5582.58  4.360857E-05
   5588.59  4.341704E-05
   5594.59  4.322665E-05
   5600.60  4.303668E-05
   5606.61  4.284856E-05
   5612.61  4.266086E-05
   5618.62  4.247429E-05
   5624.62  4.228884E-05
   5630.63  4.210379E-05
   5636.64  4.192057E-05
   5642.64  4.173777E-05
   5648.65  4.155605E-05
   5654.65  4.137613E-05
   5660.66  4.119591E-05
   5666.67  4.101748E-05
   5672.67  4.083945E-05
   5678.68  4.066251E-05
   5684.69  4.048732E-05
   5690.69  4.031253E-05
   5696.70  4.013881E-05
   5702.70  3.996547E-05
   5708.71  3.979318E-05
   5714.71  3.962265E-05
   5720.72  3.945248E-05
   5726.73  3.928337E-05
   5732.73  3.911462E-05
   5738.74  3.894759E-05
   5744.75  3.878093E-05
   5750.75  3.861532E-05
   5756.76  3.845073E-05
   5762.76  3.828649E-05
   5768.77  3.812328E-05
   5774.77  3.796109E-05
   5780.78  3.779991E-05
