Si Rho=2.33, Sig=0.nm, P=0., 2.5deg
 Photon energy (eV), Reflectivity
   1000.00  2.478894E-02
   1006.01  2.394553E-02
   1012.01  2.313922E-02
   1018.02  2.236848E-02
   1024.02  2.162991E-02
   1030.03  2.092323E-02
   1036.04  2.024635E-02
   1042.04  1.959700E-02
   1048.05  1.897477E-02
   1054.05  1.837751E-02
   1060.06  1.780382E-02
   1066.07  1.725337E-02
   1072.07  1.672396E-02
   1078.08  1.621495E-02
   1084.08  1.572605E-02
   1090.09  1.525468E-02
   1096.10  1.480107E-02
   1102.10  1.436489E-02
   1108.11  1.394640E-02
   1114.11  1.354388E-02
   1120.12  1.315636E-02
   1126.13  1.278326E-02
   1132.13  1.242381E-02
   1138.14  1.207737E-02
   1144.14  1.174316E-02
   1150.15  1.142079E-02
   1156.16  1.110979E-02
   1162.16  1.080939E-02
   1168.17  1.051933E-02
   1174.17  1.023926E-02
   1180.18  9.968543E-03
   1186.19  9.706881E-03
   1192.19  9.454003E-03
   1198.20  9.209301E-03
   1204.20  8.972447E-03
   1210.21  8.743359E-03
   1216.22  8.521623E-03
   1222.22  8.306677E-03
   1228.23  8.098649E-03
   1234.23  7.897254E-03
   1240.24  7.701756E-03
   1246.25  7.512399E-03
   1252.25  7.328958E-03
   1258.26  7.150895E-03
   1264.26  6.978169E-03
   1270.27  6.810738E-03
   1276.28  6.648262E-03
   1282.28  6.490363E-03
   1288.29  6.337213E-03
   1294.29  6.188640E-03
   1300.30  6.043996E-03
   1306.31  5.903541E-03
   1312.31  5.767199E-03
   1318.32  5.634642E-03
   1324.32  5.505576E-03
   1330.33  5.380236E-03
   1336.34  5.258489E-03
   1342.34  5.139774E-03
   1348.35  5.024338E-03
   1354.35  4.912164E-03
   1360.36  4.803005E-03
   1366.37  4.696457E-03
   1372.37  4.592867E-03
   1378.38  4.492141E-03
   1384.38  4.393857E-03
   1390.39  4.298001E-03
   1396.40  4.204758E-03
   1402.40  4.114056E-03
   1408.41  4.025282E-03
   1414.41  3.938806E-03
   1420.42  3.854641E-03
   1426.43  3.772689E-03
   1432.43  3.692320E-03
   1438.44  3.614077E-03
   1444.44  3.537902E-03
   1450.45  3.463577E-03
   1456.46  3.390669E-03
   1462.46  3.319664E-03
   1468.47  3.250507E-03
   1474.47  3.182907E-03
   1480.48  3.116569E-03
   1486.49  3.051931E-03
   1492.49  2.988957E-03
   1498.50  2.927315E-03
   1504.50  2.866757E-03
   1510.51  2.807736E-03
   1516.52  2.750206E-03
   1522.52  2.693848E-03
   1528.53  2.638318E-03
   1534.53  2.584187E-03
   1540.54  2.531417E-03
   1546.55  2.479746E-03
   1552.55  2.428630E-03
   1558.56  2.378797E-03
   1564.56  2.330211E-03
   1570.57  2.282759E-03
   1576.58  2.235506E-03
   1582.58  2.189433E-03
   1588.59  2.144507E-03
   1594.59  2.100691E-03
   1600.60  2.056969E-03
   1606.61  2.014144E-03
   1612.61  1.972389E-03
   1618.62  1.931669E-03
   1624.62  1.891202E-03
   1630.63  1.851108E-03
   1636.64  1.812016E-03
   1642.64  1.773909E-03
   1648.65  1.736452E-03
   1654.65  1.698544E-03
   1660.66  1.661605E-03
   1666.67  1.625595E-03
   1672.67  1.590493E-03
   1678.68  1.554716E-03
   1684.68  1.519309E-03
   1690.69  1.484824E-03
   1696.70  1.451226E-03
   1702.70  1.417849E-03
   1708.71  1.383193E-03
   1714.71  1.349472E-03
   1720.72  1.316663E-03
   1726.73  1.284736E-03
   1732.73  1.250974E-03
   1738.74  1.216725E-03
   1744.74  1.183460E-03
   1750.75  1.151157E-03
   1756.76  1.119785E-03
   1762.76  1.082378E-03
   1768.77  1.046118E-03
   1774.77  1.011052E-03
   1780.78  9.771312E-04
   1786.79  9.400485E-04
   1792.79  8.924214E-04
   1798.80  8.468439E-04
   1804.80  8.032404E-04
   1810.81  7.615277E-04
   1816.82  6.477222E-04
   1822.82  4.147363E-04
   1828.83  2.390911E-04
   1834.83  1.152926E-04
   1840.84  6.430775E-04
   1846.85  6.862967E-04
   1852.85  7.308745E-04
   1858.86  7.767354E-04
   1864.86  8.038589E-04
   1870.87  8.265082E-04
   1876.88  8.492409E-04
   1882.88  8.720349E-04
   1888.89  8.948835E-04
   1894.90  9.045025E-04
   1900.90  9.107553E-04
   1906.91  9.169133E-04
   1912.91  9.229725E-04
   1918.92  9.289305E-04
   1924.93  9.306704E-04
   1930.93  9.306882E-04
   1936.94  9.306594E-04
   1942.94  9.305823E-04
   1948.95  9.304580E-04
   1954.96  9.287171E-04
   1960.96  9.256212E-04
   1966.97  9.225180E-04
   1972.97  9.194172E-04
   1978.98  9.163127E-04
   1984.99  9.127203E-04
   1990.99  9.079053E-04
   1997.00  9.031229E-04
   2003.00  8.983672E-04
   2009.01  8.936417E-04
   2015.02  8.889431E-04
   2021.02  8.832285E-04
   2027.03  8.774953E-04
   2033.03  8.718127E-04
   2039.04  8.661795E-04
   2045.05  8.605953E-04
   2051.05  8.546612E-04
   2057.06  8.484155E-04
   2063.06  8.422360E-04
   2069.07  8.361136E-04
   2075.08  8.300552E-04
   2081.08  8.240547E-04
   2087.09  8.175418E-04
   2093.09  8.110997E-04
   2099.10  8.047274E-04
   2105.10  7.984264E-04
   2111.11  7.921880E-04
   2117.12  7.858492E-04
   2123.12  7.793200E-04
   2129.13  7.728616E-04
   2135.14  7.664781E-04
   2141.14  7.601681E-04
   2147.15  7.539284E-04
   2153.15  7.475245E-04
   2159.16  7.410973E-04
   2165.17  7.347427E-04
   2171.17  7.284650E-04
   2177.18  7.222558E-04
   2183.18  7.161235E-04
   2189.19  7.098241E-04
   2195.20  7.035765E-04
   2201.20  6.974079E-04
   2207.21  6.913077E-04
   2213.21  6.852825E-04
   2219.22  6.793197E-04
   2225.23  6.732314E-04
   2231.23  6.672171E-04
   2237.24  6.612737E-04
   2243.24  6.554026E-04
   2249.25  6.496006E-04
   2255.26  6.438603E-04
   2261.26  6.380331E-04
   2267.27  6.322763E-04
   2273.27  6.265873E-04
   2279.28  6.209694E-04
   2285.29  6.154174E-04
   2291.29  6.099326E-04
   2297.30  6.043860E-04
   2303.30  5.989062E-04
   2309.31  5.934930E-04
   2315.32  5.881430E-04
   2321.32  5.828580E-04
   2327.33  5.776352E-04
   2333.33  5.723849E-04
   2339.34  5.671792E-04
   2345.35  5.620366E-04
   2351.35  5.569545E-04
   2357.36  5.519320E-04
   2363.36  5.469706E-04
   2369.37  5.420198E-04
   2375.38  5.370878E-04
   2381.38  5.322139E-04
   2387.39  5.274013E-04
   2393.39  5.226436E-04
   2399.40  5.179418E-04
   2405.41  5.132857E-04
   2411.41  5.086207E-04
   2417.42  5.040131E-04
   2423.42  4.994598E-04
   2429.43  4.949604E-04
   2435.44  4.905144E-04
   2441.44  4.861213E-04
   2447.45  4.817372E-04
   2453.45  4.773860E-04
   2459.46  4.730865E-04
   2465.47  4.688363E-04
   2471.47  4.646370E-04
   2477.48  4.604860E-04
   2483.48  4.563790E-04
   2489.49  4.522741E-04
   2495.50  4.482183E-04
   2501.50  4.442077E-04
   2507.51  4.402453E-04
   2513.51  4.363288E-04
   2519.52  4.324598E-04
   2525.53  4.286136E-04
   2531.53  4.247904E-04
   2537.54  4.210100E-04
   2543.54  4.172739E-04
   2549.55  4.135814E-04
   2555.56  4.099320E-04
   2561.56  4.063237E-04
   2567.57  4.027327E-04
   2573.57  3.991715E-04
   2579.58  3.956488E-04
   2585.59  3.921693E-04
   2591.59  3.887276E-04
   2597.60  3.853250E-04
   2603.60  3.819611E-04
   2609.61  3.786131E-04
   2615.62  3.752930E-04
   2621.62  3.720109E-04
   2627.63  3.687663E-04
   2633.63  3.655572E-04
   2639.64  3.623867E-04
   2645.65  3.592493E-04
   2651.65  3.561314E-04
   2657.66  3.530380E-04
   2663.66  3.499818E-04
   2669.67  3.469596E-04
   2675.68  3.439707E-04
   2681.68  3.410135E-04
   2687.69  3.380906E-04
   2693.69  3.351872E-04
   2699.70  3.323064E-04
   2705.71  3.294577E-04
   2711.71  3.266393E-04
   2717.72  3.238527E-04
   2723.72  3.210973E-04
   2729.73  3.183713E-04
   2735.74  3.156684E-04
   2741.74  3.129836E-04
   2747.75  3.103275E-04
   2753.75  3.077002E-04
   2759.76  3.051025E-04
   2765.77  3.025316E-04
   2771.77  2.999900E-04
   2777.78  2.974745E-04
   2783.78  2.949711E-04
   2789.79  2.924935E-04
   2795.80  2.900429E-04
   2801.80  2.876192E-04
   2807.81  2.852219E-04
   2813.81  2.828481E-04
   2819.82  2.805017E-04
   2825.83  2.781725E-04
   2831.83  2.758601E-04
   2837.84  2.735748E-04
   2843.84  2.713120E-04
   2849.85  2.690743E-04
   2855.86  2.668600E-04
   2861.86  2.646691E-04
   2867.87  2.625013E-04
   2873.87  2.603437E-04
   2879.88  2.582103E-04
   2885.89  2.560967E-04
   2891.89  2.540069E-04
   2897.90  2.519394E-04
   2903.90  2.498912E-04
   2909.91  2.478664E-04
   2915.92  2.458603E-04
   2921.92  2.438649E-04
   2927.93  2.418922E-04
   2933.93  2.399381E-04
   2939.94  2.380038E-04
   2945.95  2.360904E-04
   2951.95  2.341965E-04
   2957.96  2.323232E-04
   2963.96  2.304651E-04
   2969.97  2.286205E-04
   2975.98  2.267949E-04
   2981.98  2.249880E-04
   2987.99  2.231997E-04
   2993.99  2.214285E-04
   3000.00  2.196757E-04
   3006.01  2.179422E-04
   3012.01  2.162216E-04
   3018.02  2.145137E-04
   3024.02  2.128235E-04
   3030.03  2.111485E-04
   3036.04  2.094935E-04
   3042.04  2.078533E-04
   3048.05  2.062291E-04
   3054.05  2.046220E-04
   3060.06  2.030282E-04
   3066.07  2.014449E-04
   3072.07  1.998785E-04
   3078.08  1.983274E-04
   3084.08  1.967905E-04
   3090.09  1.952711E-04
   3096.10  1.937644E-04
   3102.10  1.922738E-04
   3108.11  1.907969E-04
   3114.11  1.893286E-04
   3120.12  1.878762E-04
   3126.13  1.864360E-04
   3132.13  1.850102E-04
   3138.14  1.835987E-04
   3144.14  1.822014E-04
   3150.15  1.808171E-04
   3156.16  1.794468E-04
   3162.16  1.780857E-04
   3168.17  1.767360E-04
   3174.17  1.753990E-04
   3180.18  1.740756E-04
   3186.19  1.727646E-04
   3192.19  1.714659E-04
   3198.20  1.701794E-04
   3204.20  1.689062E-04
   3210.21  1.676439E-04
   3216.22  1.663901E-04
   3222.22  1.651482E-04
   3228.23  1.639181E-04
   3234.23  1.626997E-04
   3240.24  1.614929E-04
   3246.25  1.602977E-04
   3252.25  1.591128E-04
   3258.26  1.579404E-04
   3264.26  1.567760E-04
   3270.27  1.556217E-04
   3276.28  1.544764E-04
   3282.28  1.533433E-04
   3288.29  1.522201E-04
   3294.29  1.511079E-04
   3300.30  1.500054E-04
   3306.31  1.489137E-04
   3312.31  1.478316E-04
   3318.32  1.467580E-04
   3324.32  1.456918E-04
   3330.33  1.446361E-04
   3336.34  1.435898E-04
   3342.34  1.425538E-04
   3348.35  1.415272E-04
   3354.35  1.405086E-04
   3360.36  1.395002E-04
   3366.37  1.385009E-04
   3372.37  1.375096E-04
   3378.38  1.365251E-04
   3384.38  1.355506E-04
   3390.39  1.345849E-04
   3396.40  1.336279E-04
   3402.40  1.326787E-04
   3408.41  1.317381E-04
   3414.41  1.308071E-04
   3420.42  1.298826E-04
   3426.43  1.289666E-04
   3432.43  1.280571E-04
   3438.44  1.271559E-04
   3444.44  1.262630E-04
   3450.45  1.253774E-04
   3456.46  1.245000E-04
   3462.46  1.236299E-04
   3468.47  1.227678E-04
   3474.47  1.219128E-04
   3480.48  1.210657E-04
   3486.49  1.202238E-04
   3492.49  1.193898E-04
   3498.50  1.185636E-04
   3504.50  1.177433E-04
   3510.51  1.169308E-04
   3516.52  1.161260E-04
   3522.52  1.153279E-04
   3528.53  1.145364E-04
   3534.53  1.137517E-04
   3540.54  1.129725E-04
   3546.55  1.121999E-04
   3552.55  1.114338E-04
   3558.56  1.106742E-04
   3564.56  1.099220E-04
   3570.57  1.091751E-04
   3576.58  1.084355E-04
   3582.58  1.077014E-04
   3588.59  1.069743E-04
   3594.59  1.062517E-04
   3600.60  1.055353E-04
   3606.61  1.048241E-04
   3612.61  1.041208E-04
   3618.62  1.034218E-04
   3624.62  1.027297E-04
   3630.63  1.020427E-04
   3636.64  1.013616E-04
   3642.64  1.006865E-04
   3648.65  1.000172E-04
   3654.65  9.935208E-05
   3660.66  9.869189E-05
   3666.67  9.803747E-05
   3672.67  9.738962E-05
   3678.68  9.674580E-05
   3684.68  9.610765E-05
   3690.69  9.547597E-05
   3696.70  9.484820E-05
   3702.70  9.422598E-05
   3708.71  9.360932E-05
   3714.71  9.299563E-05
   3720.72  9.238825E-05
   3726.73  9.178546E-05
   3732.73  9.118726E-05
   3738.74  9.059362E-05
   3744.74  9.000533E-05
   3750.75  8.942232E-05
   3756.76  8.884380E-05
   3762.76  8.826971E-05
   3768.77  8.770001E-05
   3774.77  8.713469E-05
   3780.78  8.657293E-05
   3786.79  8.601705E-05
   3792.79  8.546474E-05
   3798.80  8.491670E-05
   3804.80  8.437368E-05
   3810.81  8.383489E-05
   3816.82  8.330109E-05
   3822.82  8.277065E-05
   3828.83  8.224441E-05
   3834.83  8.172225E-05
   3840.84  8.120418E-05
   3846.85  8.068943E-05
   3852.85  8.017951E-05
   3858.86  7.967360E-05
   3864.86  7.917172E-05
   3870.87  7.867377E-05
   3876.88  7.817982E-05
   3882.88  7.768979E-05
   3888.89  7.720362E-05
   3894.90  7.671987E-05
   3900.90  7.624073E-05
   3906.91  7.576466E-05
   3912.91  7.529317E-05
   3918.92  7.482475E-05
   3924.93  7.436008E-05
   3930.93  7.389919E-05
   3936.94  7.344128E-05
   3942.94  7.298781E-05
   3948.95  7.253730E-05
   3954.96  7.209046E-05
   3960.96  7.164654E-05
   3966.97  7.120625E-05
   3972.97  7.076885E-05
   3978.98  7.033502E-05
   3984.99  6.990480E-05
   3990.99  6.947809E-05
   3997.00  6.905419E-05
   4003.00  6.863383E-05
   4009.01  6.821623E-05
   4015.02  6.780212E-05
   4021.02  6.739073E-05
   4027.03  6.698277E-05
   4033.03  6.657755E-05
   4039.04  6.617500E-05
   4045.05  6.577585E-05
   4051.05  6.538005E-05
   4057.06  6.498690E-05
   4063.06  6.459709E-05
   4069.07  6.420918E-05
   4075.08  6.382527E-05
   4081.08  6.344395E-05
   4087.09  6.306519E-05
   4093.09  6.268897E-05
   4099.10  6.231531E-05
   4105.11  6.194485E-05
   4111.11  6.157691E-05
   4117.12  6.121212E-05
   4123.12  6.084984E-05
   4129.13  6.049001E-05
   4135.14  6.013333E-05
   4141.14  5.977839E-05
   4147.15  5.942722E-05
   4153.15  5.907781E-05
   4159.16  5.873082E-05
   4165.17  5.838684E-05
   4171.17  5.804458E-05
   4177.18  5.770535E-05
   4183.18  5.736845E-05
   4189.19  5.703390E-05
   4195.20  5.670166E-05
   4201.20  5.637238E-05
   4207.21  5.604541E-05
   4213.21  5.572071E-05
   4219.22  5.539827E-05
   4225.23  5.507746E-05
   4231.23  5.475954E-05
   4237.24  5.444384E-05
   4243.24  5.413100E-05
   4249.25  5.381973E-05
   4255.26  5.351068E-05
   4261.26  5.320379E-05
   4267.27  5.289972E-05
   4273.27  5.259717E-05
   4279.28  5.229741E-05
   4285.29  5.199915E-05
   4291.29  5.170303E-05
   4297.30  5.140902E-05
   4303.30  5.111711E-05
   4309.31  5.082670E-05
   4315.32  5.053958E-05
   4321.32  5.025394E-05
   4327.33  4.996974E-05
   4333.33  4.968822E-05
   4339.34  4.940872E-05
   4345.35  4.913065E-05
   4351.35  4.885520E-05
   4357.36  4.858116E-05
   4363.36  4.830853E-05
   4369.37  4.803848E-05
   4375.38  4.777041E-05
   4381.38  4.750371E-05
   4387.39  4.723897E-05
   4393.39  4.697619E-05
   4399.40  4.671535E-05
   4405.41  4.645585E-05
   4411.41  4.619885E-05
   4417.42  4.594320E-05
   4423.42  4.568943E-05
   4429.43  4.543697E-05
   4435.44  4.518697E-05
   4441.44  4.493769E-05
   4447.45  4.469086E-05
   4453.45  4.444588E-05
   4459.46  4.420217E-05
   4465.47  4.396031E-05
   4471.47  4.371969E-05
   4477.48  4.348090E-05
   4483.48  4.324450E-05
   4489.49  4.300875E-05
   4495.50  4.277480E-05
   4501.50  4.254263E-05
   4507.51  4.231168E-05
   4513.51  4.208251E-05
   4519.52  4.185454E-05
   4525.53  4.162830E-05
   4531.53  4.140383E-05
   4537.54  4.118052E-05
   4543.54  4.095895E-05
   4549.55  4.073910E-05
   4555.56  4.052040E-05
   4561.56  4.030342E-05
   4567.57  4.008758E-05
   4573.57  3.987289E-05
   4579.58  3.965986E-05
   4585.59  3.944852E-05
   4591.59  3.923831E-05
   4597.60  3.902974E-05
   4603.60  3.882229E-05
   4609.61  3.861648E-05
   4615.62  3.841178E-05
   4621.62  3.820869E-05
   4627.63  3.800669E-05
   4633.63  3.780631E-05
   4639.64  3.760701E-05
   4645.65  3.740929E-05
   4651.65  3.721212E-05
   4657.66  3.701706E-05
   4663.66  3.682252E-05
   4669.67  3.662956E-05
   4675.68  3.643816E-05
   4681.68  3.624779E-05
   4687.69  3.605898E-05
   4693.69  3.587068E-05
   4699.70  3.568390E-05
   4705.71  3.549867E-05
   4711.71  3.531495E-05
   4717.72  3.513172E-05
   4723.72  3.494950E-05
   4729.73  3.476878E-05
   4735.74  3.458955E-05
   4741.74  3.441080E-05
   4747.75  3.423354E-05
   4753.75  3.405725E-05
   4759.76  3.388244E-05
   4765.77  3.370858E-05
   4771.77  3.353569E-05
   4777.78  3.336424E-05
   4783.78  3.319325E-05
   4789.79  3.302420E-05
   4795.80  3.285559E-05
   4801.80  3.268841E-05
   4807.81  3.252167E-05
   4813.81  3.235635E-05
   4819.82  3.219244E-05
   4825.83  3.202895E-05
   4831.83  3.186687E-05
   4837.84  3.170569E-05
   4843.84  3.154542E-05
   4849.85  3.138605E-05
   4855.86  3.122853E-05
   4861.86  3.107095E-05
   4867.87  3.091474E-05
   4873.87  3.075987E-05
   4879.88  3.060589E-05
   4885.89  3.045230E-05
   4891.89  3.030006E-05
   4897.90  3.014869E-05
   4903.90  2.999817E-05
   4909.91  2.984898E-05
   4915.92  2.970017E-05
   4921.92  2.955269E-05
   4927.93  2.940605E-05
   4933.93  2.926024E-05
   4939.94  2.911526E-05
   4945.95  2.897160E-05
   4951.95  2.882829E-05
   4957.96  2.868628E-05
   4963.96  2.854461E-05
   4969.97  2.840423E-05
   4975.98  2.826467E-05
   4981.98  2.812544E-05
   4987.99  2.798749E-05
   4993.99  2.785034E-05
   5000.00  2.771443E-05
   5006.01  2.757888E-05
   5012.01  2.744456E-05
   5018.02  2.731059E-05
   5024.02  2.717783E-05
   5030.03  2.704543E-05
   5036.04  2.691423E-05
   5042.04  2.678337E-05
   5048.05  2.665327E-05
   5054.05  2.652439E-05
   5060.06  2.639627E-05
   5066.07  2.626891E-05
   5072.07  2.614186E-05
   5078.08  2.601601E-05
   5084.08  2.589091E-05
   5090.09  2.576611E-05
   5096.10  2.564250E-05
   5102.10  2.551962E-05
   5108.11  2.539748E-05
   5114.11  2.527608E-05
   5120.12  2.515497E-05
   5126.13  2.503545E-05
   5132.13  2.491579E-05
   5138.14  2.479686E-05
   5144.14  2.467906E-05
   5150.15  2.456199E-05
   5156.16  2.444562E-05
   5162.16  2.432954E-05
   5168.17  2.421458E-05
   5174.17  2.409991E-05
   5180.18  2.398636E-05
   5186.19  2.387308E-05
   5192.19  2.376049E-05
   5198.20  2.364859E-05
   5204.20  2.353738E-05
   5210.21  2.342686E-05
   5216.22  2.331702E-05
   5222.22  2.320785E-05
   5228.23  2.309895E-05
   5234.23  2.299113E-05
   5240.24  2.288399E-05
   5246.25  2.277709E-05
   5252.25  2.267128E-05
   5258.26  2.256571E-05
   5264.26  2.246081E-05
   5270.27  2.235656E-05
   5276.28  2.225297E-05
   5282.28  2.214962E-05
   5288.29  2.204692E-05
   5294.29  2.194527E-05
   5300.30  2.184426E-05
   5306.31  2.174308E-05
   5312.31  2.164335E-05
   5318.32  2.154386E-05
   5324.32  2.144459E-05
   5330.33  2.134636E-05
   5336.34  2.124835E-05
   5342.34  2.115097E-05
   5348.35  2.105422E-05
   5354.35  2.095808E-05
   5360.36  2.086256E-05
   5366.37  2.076727E-05
   5372.37  2.067298E-05
   5378.38  2.057890E-05
   5384.38  2.048544E-05
   5390.39  2.039219E-05
   5396.40  2.029993E-05
   5402.40  2.020789E-05
   5408.41  2.011645E-05
   5414.41  2.002561E-05
   5420.42  1.993535E-05
   5426.43  1.984530E-05
   5432.43  1.975623E-05
   5438.44  1.966736E-05
   5444.44  1.957907E-05
   5450.45  1.949099E-05
   5456.46  1.940350E-05
   5462.46  1.931657E-05
   5468.47  1.923023E-05
   5474.47  1.914445E-05
   5480.48  1.905887E-05
   5486.49  1.897424E-05
   5492.49  1.888942E-05
   5498.50  1.880555E-05
   5504.50  1.872186E-05
   5510.51  1.863911E-05
   5516.52  1.855617E-05
   5522.52  1.847416E-05
   5528.53  1.839233E-05
   5534.53  1.831106E-05
   5540.54  1.822997E-05
   5546.55  1.814980E-05
   5552.55  1.806981E-05
   5558.56  1.798999E-05
   5564.56  1.791109E-05
   5570.57  1.783236E-05
   5576.58  1.775416E-05
   5582.58  1.767652E-05
   5588.59  1.759903E-05
   5594.59  1.752208E-05
   5600.60  1.744567E-05
   5606.61  1.736978E-05
   5612.61  1.729405E-05
   5618.62  1.721886E-05
   5624.62  1.714383E-05
   5630.63  1.706932E-05
   5636.64  1.699533E-05
   5642.64  1.692150E-05
   5648.65  1.684820E-05
   5654.65  1.677541E-05
   5660.66  1.670277E-05
   5666.67  1.663100E-05
   5672.67  1.655903E-05
   5678.68  1.648792E-05
   5684.69  1.641697E-05
   5690.69  1.634617E-05
   5696.70  1.627623E-05
   5702.70  1.620643E-05
   5708.71  1.613678E-05
   5714.71  1.606798E-05
   5720.72  1.599933E-05
   5726.73  1.593082E-05
   5732.73  1.586281E-05
   5738.74  1.579529E-05
   5744.75  1.572791E-05
   5750.75  1.566102E-05
   5756.76  1.559462E-05
   5762.76  1.552836E-05
   5768.77  1.546257E-05
   5774.77  1.539727E-05
   5780.78  1.533211E-05
