Si Rho=2.33, Sig=0.nm, P=0., 0.5deg
 Photon energy (eV), Reflectivity
   1000.00  0.951132
   1006.01  0.951316
   1012.01  0.951500
   1018.02  0.951678
   1024.02  0.951857
   1030.03  0.952031
   1036.04  0.952203
   1042.04  0.952372
   1048.05  0.952538
   1054.05  0.952704
   1060.06  0.952865
   1066.07  0.953023
   1072.07  0.953179
   1078.08  0.953331
   1084.08  0.953482
   1090.09  0.953598
   1096.10  0.953702
   1102.10  0.953804
   1108.11  0.953883
   1114.11  0.953959
   1120.12  0.954032
   1126.13  0.954105
   1132.13  0.954178
   1138.14  0.954250
   1144.14  0.954321
   1150.15  0.954391
   1156.16  0.954458
   1162.16  0.954525
   1168.17  0.954593
   1174.17  0.954659
   1180.18  0.954721
   1186.19  0.954785
   1192.19  0.954847
   1198.20  0.954909
   1204.20  0.954967
   1210.21  0.955027
   1216.22  0.955086
   1222.22  0.955143
   1228.23  0.955199
   1234.23  0.955254
   1240.24  0.955305
   1246.25  0.955359
   1252.25  0.955409
   1258.26  0.955458
   1264.26  0.955506
   1270.27  0.955553
   1276.28  0.955598
   1282.28  0.955643
   1288.29  0.955684
   1294.29  0.955726
   1300.30  0.955768
   1306.31  0.955810
   1312.31  0.955850
   1318.32  0.955888
   1324.32  0.955924
   1330.33  0.955960
   1336.34  0.955994
   1342.34  0.956028
   1348.35  0.956057
   1354.35  0.956086
   1360.36  0.956116
   1366.37  0.956139
   1372.37  0.956167
   1378.38  0.956189
   1384.38  0.956210
   1390.39  0.956231
   1396.40  0.956250
   1402.40  0.956268
   1408.41  0.956284
   1414.41  0.956297
   1420.42  0.956309
   1426.43  0.956320
   1432.43  0.956327
   1438.44  0.956332
   1444.44  0.956338
   1450.45  0.956343
   1456.46  0.956342
   1462.46  0.956340
   1468.47  0.956335
   1474.47  0.956330
   1480.48  0.956319
   1486.49  0.956308
   1492.49  0.956297
   1498.50  0.956287
   1504.50  0.956275
   1510.51  0.956269
   1516.52  0.956261
   1522.52  0.956245
   1528.53  0.956228
   1534.53  0.956206
   1540.54  0.956186
   1546.55  0.956160
   1552.55  0.956126
   1558.56  0.956092
   1564.56  0.956058
   1570.57  0.956019
   1576.58  0.955965
   1582.58  0.955909
   1588.59  0.955854
   1594.59  0.955800
   1600.60  0.955728
   1606.61  0.955653
   1612.61  0.955574
   1618.62  0.955496
   1624.62  0.955406
   1630.63  0.955299
   1636.64  0.955195
   1642.64  0.955088
   1648.65  0.954970
   1654.65  0.954829
   1660.66  0.954684
   1666.67  0.954539
   1672.67  0.954389
   1678.68  0.954205
   1684.68  0.954003
   1690.69  0.953801
   1696.70  0.953595
   1702.70  0.953373
   1708.71  0.953090
   1714.71  0.952804
   1720.72  0.952516
   1726.73  0.952219
   1732.73  0.951847
   1738.74  0.951432
   1744.74  0.951006
   1750.75  0.950574
   1756.76  0.950132
   1762.76  0.949429
   1768.77  0.948709
   1774.77  0.947965
   1780.78  0.947201
   1786.79  0.946219
   1792.79  0.944620
   1798.80  0.942929
   1804.80  0.941151
   1810.81  0.939269
   1816.82  0.931303
   1822.82  0.899524
   1828.83  0.828594
   1834.83  0.517871
   1840.84  0.468772
   1846.85  0.491645
   1852.85  0.513436
   1858.86  0.534136
   1864.86  0.547125
   1870.87  0.558139
   1876.88  0.568809
   1882.88  0.579140
   1888.89  0.589140
   1894.90  0.595155
   1900.90  0.600153
   1906.91  0.605064
   1912.91  0.609889
   1918.92  0.614629
   1924.93  0.618215
   1930.93  0.621323
   1936.94  0.624393
   1942.94  0.627424
   1948.95  0.630418
   1954.96  0.632976
   1960.96  0.635165
   1966.97  0.637332
   1972.97  0.639479
   1978.98  0.641604
   1984.99  0.643586
   1990.99  0.645242
   1997.00  0.646884
   2003.00  0.648511
   2009.01  0.650125
   2015.02  0.651725
   2021.02  0.653048
   2027.03  0.654344
   2033.03  0.655630
   2039.04  0.656906
   2045.05  0.658173
   2051.05  0.659325
   2057.06  0.660373
   2063.06  0.661412
   2069.07  0.662444
   2075.08  0.663469
   2081.08  0.664486
   2087.09  0.665378
   2093.09  0.666264
   2099.10  0.667145
   2105.10  0.668018
   2111.11  0.668886
   2117.12  0.669701
   2123.12  0.670440
   2129.13  0.671174
   2135.14  0.671902
   2141.14  0.672625
   2147.15  0.673343
   2153.15  0.673992
   2159.16  0.674609
   2165.17  0.675221
   2171.17  0.675828
   2177.18  0.676431
   2183.18  0.677029
   2189.19  0.677559
   2195.20  0.678078
   2201.20  0.678593
   2207.21  0.679104
   2213.21  0.679611
   2219.22  0.680111
   2225.23  0.680547
   2231.23  0.680979
   2237.24  0.681407
   2243.24  0.681831
   2249.25  0.682251
   2255.26  0.682665
   2261.26  0.683029
   2267.27  0.683388
   2273.27  0.683744
   2279.28  0.684097
   2285.29  0.684446
   2291.29  0.684790
   2297.30  0.685093
   2303.30  0.685391
   2309.31  0.685685
   2315.32  0.685976
   2321.32  0.686263
   2327.33  0.686546
   2333.33  0.686795
   2339.34  0.687032
   2345.35  0.687265
   2351.35  0.687495
   2357.36  0.687721
   2363.36  0.687944
   2369.37  0.688147
   2375.38  0.688334
   2381.38  0.688517
   2387.39  0.688697
   2393.39  0.688873
   2399.40  0.689045
   2405.41  0.689208
   2411.41  0.689344
   2417.42  0.689475
   2423.42  0.689602
   2429.43  0.689726
   2435.44  0.689847
   2441.44  0.689963
   2447.45  0.690060
   2453.45  0.690146
   2459.46  0.690227
   2465.47  0.690306
   2471.47  0.690380
   2477.48  0.690450
   2483.48  0.690514
   2489.49  0.690555
   2495.50  0.690593
   2501.50  0.690626
   2507.51  0.690654
   2513.51  0.690679
   2519.52  0.690700
   2525.53  0.690708
   2531.53  0.690699
   2537.54  0.690687
   2543.54  0.690670
   2549.55  0.690649
   2555.56  0.690624
   2561.56  0.690594
   2567.57  0.690550
   2573.57  0.690498
   2579.58  0.690440
   2585.59  0.690378
   2591.59  0.690312
   2597.60  0.690240
   2603.60  0.690164
   2609.61  0.690071
   2615.62  0.689968
   2621.62  0.689859
   2627.63  0.689746
   2633.63  0.689628
   2639.64  0.689505
   2645.65  0.689378
   2651.65  0.689234
   2657.66  0.689081
   2663.66  0.688923
   2669.67  0.688760
   2675.68  0.688591
   2681.68  0.688417
   2687.69  0.688237
   2693.69  0.688047
   2699.70  0.687846
   2705.71  0.687641
   2711.71  0.687429
   2717.72  0.687211
   2723.72  0.686988
   2729.73  0.686759
   2735.74  0.686518
   2741.74  0.686263
   2747.75  0.686001
   2753.75  0.685733
   2759.76  0.685459
   2765.77  0.685178
   2771.77  0.684891
   2777.78  0.684597
   2783.78  0.684285
   2789.79  0.683965
   2795.80  0.683639
   2801.80  0.683306
   2807.81  0.682966
   2813.81  0.682618
   2819.82  0.682263
   2825.83  0.681896
   2831.83  0.681516
   2837.84  0.681130
   2843.84  0.680735
   2849.85  0.680333
   2855.86  0.679922
   2861.86  0.679503
   2867.87  0.679076
   2873.87  0.678630
   2879.88  0.678175
   2885.89  0.677712
   2891.89  0.677239
   2897.90  0.676757
   2903.90  0.676267
   2909.91  0.675766
   2915.92  0.675255
   2921.92  0.674728
   2927.93  0.674191
   2933.93  0.673643
   2939.94  0.673085
   2945.95  0.672517
   2951.95  0.671938
   2957.96  0.671349
   2963.96  0.670746
   2969.97  0.670125
   2975.98  0.669493
   2981.98  0.668849
   2987.99  0.668193
   2993.99  0.667526
   3000.00  0.666845
   3006.01  0.666153
   3012.01  0.665445
   3018.02  0.664718
   3024.02  0.663979
   3030.03  0.663225
   3036.04  0.662458
   3042.04  0.661677
   3048.05  0.660881
   3054.05  0.660071
   3060.06  0.659244
   3066.07  0.658396
   3072.07  0.657531
   3078.08  0.656652
   3084.08  0.655755
   3090.09  0.654842
   3096.10  0.653911
   3102.10  0.652963
   3108.11  0.651998
   3114.11  0.651005
   3120.12  0.649992
   3126.13  0.648961
   3132.13  0.647910
   3138.14  0.646838
   3144.14  0.645747
   3150.15  0.644634
   3156.16  0.643500
   3162.16  0.642340
   3168.17  0.641154
   3174.17  0.639945
   3180.18  0.638712
   3186.19  0.637455
   3192.19  0.636173
   3198.20  0.634866
   3204.20  0.633532
   3210.21  0.632170
   3216.22  0.630775
   3222.22  0.629350
   3228.23  0.627897
   3234.23  0.626413
   3240.24  0.624899
   3246.25  0.623354
   3252.25  0.621776
   3258.26  0.620165
   3264.26  0.618515
   3270.27  0.616826
   3276.28  0.615101
   3282.28  0.613338
   3288.29  0.611537
   3294.29  0.609697
   3300.30  0.607816
   3306.31  0.605894
   3312.31  0.603929
   3318.32  0.601915
   3324.32  0.599852
   3330.33  0.597743
   3336.34  0.595585
   3342.34  0.593378
   3348.35  0.591119
   3354.35  0.588808
   3360.36  0.586443
   3366.37  0.584023
   3372.37  0.581537
   3378.38  0.578990
   3384.38  0.576382
   3390.39  0.573711
   3396.40  0.570976
   3402.40  0.568174
   3408.41  0.565305
   3414.41  0.562365
   3420.42  0.559353
   3426.43  0.556261
   3432.43  0.553089
   3438.44  0.549839
   3444.44  0.546509
   3450.45  0.543097
   3456.46  0.539600
   3462.46  0.536019
   3468.47  0.532349
   3474.47  0.528590
   3480.48  0.524735
   3486.49  0.520781
   3492.49  0.516733
   3498.50  0.512590
   3504.50  0.508349
   3510.51  0.504013
   3516.52  0.499577
   3522.52  0.495044
   3528.53  0.490414
   3534.53  0.485684
   3540.54  0.480848
   3546.55  0.475917
   3552.55  0.470893
   3558.56  0.465777
   3564.56  0.460575
   3570.57  0.455288
   3576.58  0.449921
   3582.58  0.444479
   3588.59  0.438967
   3594.59  0.433383
   3600.60  0.427738
   3606.61  0.422040
   3612.61  0.416299
   3618.62  0.410521
   3624.62  0.404716
   3630.63  0.398890
   3636.64  0.393052
   3642.64  0.387212
   3648.65  0.381376
   3654.65  0.375541
   3660.66  0.369727
   3666.67  0.363941
   3672.67  0.358193
   3678.68  0.352487
   3684.68  0.346831
   3690.69  0.341230
   3696.70  0.335692
   3702.70  0.330219
   3708.71  0.324816
   3714.71  0.319478
   3720.72  0.314218
   3726.73  0.309040
   3732.73  0.303944
   3738.74  0.298935
   3744.74  0.294013
   3750.75  0.289179
   3756.76  0.284434
   3762.76  0.279778
   3768.77  0.275211
   3774.77  0.270727
   3780.78  0.266332
   3786.79  0.262026
   3792.79  0.257808
   3798.80  0.253677
   3804.80  0.249631
   3810.81  0.245670
   3816.82  0.241793
   3822.82  0.237997
   3828.83  0.234282
   3834.83  0.230641
   3840.84  0.227076
   3846.85  0.223588
   3852.85  0.220174
   3858.86  0.216834
   3864.86  0.213564
   3870.87  0.210363
   3876.88  0.207231
   3882.88  0.204165
   3888.89  0.201164
   3894.90  0.198222
   3900.90  0.195340
   3906.91  0.192519
   3912.91  0.189756
   3918.92  0.187050
   3924.93  0.184401
   3930.93  0.181805
   3936.94  0.179263
   3942.94  0.176772
   3948.95  0.174332
   3954.96  0.171940
   3960.96  0.169593
   3966.97  0.167293
   3972.97  0.165039
   3978.98  0.162829
   3984.99  0.160663
   3990.99  0.158538
   3997.00  0.156455
   4003.00  0.154411
   4009.01  0.152407
   4015.02  0.150440
   4021.02  0.148510
   4027.03  0.146614
   4033.03  0.144754
   4039.04  0.142929
   4045.05  0.141137
   4051.05  0.139377
   4057.06  0.137651
   4063.06  0.135955
   4069.07  0.134289
   4075.08  0.132654
   4081.08  0.131048
   4087.09  0.129468
   4093.09  0.127916
   4099.10  0.126391
   4105.11  0.124892
   4111.11  0.123419
   4117.12  0.121972
   4123.12  0.120549
   4129.13  0.119150
   4135.14  0.117775
   4141.14  0.116423
   4147.15  0.115094
   4153.15  0.113785
   4159.16  0.112498
   4165.17  0.111231
   4171.17  0.109985
   4177.18  0.108760
   4183.18  0.107554
   4189.19  0.106367
   4195.20  0.105200
   4201.20  0.104051
   4207.21  0.102920
   4213.21  0.101806
   4219.22  0.100710
   4225.23  9.963024E-02
   4231.23  9.856711E-02
   4237.24  9.752028E-02
   4243.24  9.648942E-02
   4249.25  9.547433E-02
   4255.26  9.447438E-02
   4261.26  9.348954E-02
   4267.27  9.251947E-02
   4273.27  9.156382E-02
   4279.28  9.062227E-02
   4285.29  8.969439E-02
   4291.29  8.877927E-02
   4297.30  8.787762E-02
   4303.30  8.698893E-02
   4309.31  8.611313E-02
   4315.32  8.524988E-02
   4321.32  8.439898E-02
   4327.33  8.356024E-02
   4333.33  8.273325E-02
   4339.34  8.191805E-02
   4345.35  8.111414E-02
   4351.35  8.032152E-02
   4357.36  7.953937E-02
   4363.36  7.876774E-02
   4369.37  7.800676E-02
   4375.38  7.725602E-02
   4381.38  7.651571E-02
   4387.39  7.578540E-02
   4393.39  7.506494E-02
   4399.40  7.435420E-02
   4405.41  7.365295E-02
   4411.41  7.296108E-02
   4417.42  7.227834E-02
   4423.42  7.160462E-02
   4429.43  7.093938E-02
   4435.44  7.028282E-02
   4441.44  6.963486E-02
   4447.45  6.899528E-02
   4453.45  6.836396E-02
   4459.46  6.774075E-02
   4465.47  6.712551E-02
   4471.47  6.651819E-02
   4477.48  6.591856E-02
   4483.48  6.532653E-02
   4489.49  6.474186E-02
   4495.50  6.416467E-02
   4501.50  6.359399E-02
   4507.51  6.303044E-02
   4513.51  6.247390E-02
   4519.52  6.192420E-02
   4525.53  6.138129E-02
   4531.53  6.084499E-02
   4537.54  6.031530E-02
   4543.54  5.979197E-02
   4549.55  5.927501E-02
   4555.56  5.876432E-02
   4561.56  5.825976E-02
   4567.57  5.776122E-02
   4573.57  5.726832E-02
   4579.58  5.678122E-02
   4585.59  5.629993E-02
   4591.59  5.582430E-02
   4597.60  5.535428E-02
   4603.60  5.488972E-02
   4609.61  5.443057E-02
   4615.62  5.397681E-02
   4621.62  5.352823E-02
   4627.63  5.308484E-02
   4633.63  5.264656E-02
   4639.64  5.221330E-02
   4645.65  5.178478E-02
   4651.65  5.136100E-02
   4657.66  5.094206E-02
   4663.66  5.052782E-02
   4669.67  5.011825E-02
   4675.68  4.971325E-02
   4681.68  4.931283E-02
   4687.69  4.891681E-02
   4693.69  4.852514E-02
   4699.70  4.813784E-02
   4705.71  4.775477E-02
   4711.71  4.737598E-02
   4717.72  4.700123E-02
   4723.72  4.663038E-02
   4729.73  4.626352E-02
   4735.74  4.590067E-02
   4741.74  4.554173E-02
   4747.75  4.518662E-02
   4753.75  4.483536E-02
   4759.76  4.448782E-02
   4765.77  4.414396E-02
   4771.77  4.380380E-02
   4777.78  4.346719E-02
   4783.78  4.313412E-02
   4789.79  4.280458E-02
   4795.80  4.247839E-02
   4801.80  4.215541E-02
   4807.81  4.183580E-02
   4813.81  4.151948E-02
   4819.82  4.120645E-02
   4825.83  4.089668E-02
   4831.83  4.059004E-02
   4837.84  4.028660E-02
   4843.84  3.998624E-02
   4849.85  3.968890E-02
   4855.86  3.939461E-02
   4861.86  3.910328E-02
   4867.87  3.881488E-02
   4873.87  3.852939E-02
   4879.88  3.824674E-02
   4885.89  3.796685E-02
   4891.89  3.768978E-02
   4897.90  3.741550E-02
   4903.90  3.714386E-02
   4909.91  3.687498E-02
   4915.92  3.660871E-02
   4921.92  3.634507E-02
   4927.93  3.608402E-02
   4933.93  3.582549E-02
   4939.94  3.556947E-02
   4945.95  3.531594E-02
   4951.95  3.506485E-02
   4957.96  3.481604E-02
   4963.96  3.456962E-02
   4969.97  3.432556E-02
   4975.98  3.408388E-02
   4981.98  3.384444E-02
   4987.99  3.360733E-02
   4993.99  3.337248E-02
   5000.00  3.313981E-02
   5006.01  3.290937E-02
   5012.01  3.268106E-02
   5018.02  3.245493E-02
   5024.02  3.223089E-02
   5030.03  3.200895E-02
   5036.04  3.178893E-02
   5042.04  3.157096E-02
   5048.05  3.135502E-02
   5054.05  3.114105E-02
   5060.06  3.092907E-02
   5066.07  3.071902E-02
   5072.07  3.051091E-02
   5078.08  3.030470E-02
   5084.08  3.010038E-02
   5090.09  2.989788E-02
   5096.10  2.969725E-02
   5102.10  2.949842E-02
   5108.11  2.930136E-02
   5114.11  2.910607E-02
   5120.12  2.891255E-02
   5126.13  2.872070E-02
   5132.13  2.853061E-02
   5138.14  2.834218E-02
   5144.14  2.815543E-02
   5150.15  2.797033E-02
   5156.16  2.778688E-02
   5162.16  2.760506E-02
   5168.17  2.742481E-02
   5174.17  2.724615E-02
   5180.18  2.706905E-02
   5186.19  2.689350E-02
   5192.19  2.671947E-02
   5198.20  2.654687E-02
   5204.20  2.637574E-02
   5210.21  2.620610E-02
   5216.22  2.603792E-02
   5222.22  2.587117E-02
   5228.23  2.570585E-02
   5234.23  2.554195E-02
   5240.24  2.537945E-02
   5246.25  2.521833E-02
   5252.25  2.505859E-02
   5258.26  2.490021E-02
   5264.26  2.474315E-02
   5270.27  2.458742E-02
   5276.28  2.443301E-02
   5282.28  2.427985E-02
   5288.29  2.412797E-02
   5294.29  2.397738E-02
   5300.30  2.382803E-02
   5306.31  2.367993E-02
   5312.31  2.353306E-02
   5318.32  2.338739E-02
   5324.32  2.324293E-02
   5330.33  2.309967E-02
   5336.34  2.295759E-02
   5342.34  2.281666E-02
   5348.35  2.267689E-02
   5354.35  2.253827E-02
   5360.36  2.240076E-02
   5366.37  2.226436E-02
   5372.37  2.212906E-02
   5378.38  2.199485E-02
   5384.38  2.186172E-02
   5390.39  2.172968E-02
   5396.40  2.159869E-02
   5402.40  2.146875E-02
   5408.41  2.133985E-02
   5414.41  2.121197E-02
   5420.42  2.108512E-02
   5426.43  2.095927E-02
   5432.43  2.083444E-02
   5438.44  2.071058E-02
   5444.44  2.058769E-02
   5450.45  2.046579E-02
   5456.46  2.034478E-02
   5462.46  2.022474E-02
   5468.47  2.010562E-02
   5474.47  1.998745E-02
   5480.48  1.987018E-02
   5486.49  1.975382E-02
   5492.49  1.963839E-02
   5498.50  1.952383E-02
   5504.50  1.941017E-02
   5510.51  1.929739E-02
   5516.52  1.918547E-02
   5522.52  1.907442E-02
   5528.53  1.896421E-02
   5534.53  1.885485E-02
   5540.54  1.874631E-02
   5546.55  1.863860E-02
   5552.55  1.853170E-02
   5558.56  1.842561E-02
   5564.56  1.832032E-02
   5570.57  1.821582E-02
   5576.58  1.811212E-02
   5582.58  1.800921E-02
   5588.59  1.790706E-02
   5594.59  1.780568E-02
   5600.60  1.770506E-02
   5606.61  1.760519E-02
   5612.61  1.750606E-02
   5618.62  1.740767E-02
   5624.62  1.731001E-02
   5630.63  1.721305E-02
   5636.64  1.711679E-02
   5642.64  1.702125E-02
   5648.65  1.692640E-02
   5654.65  1.683225E-02
   5660.66  1.673881E-02
   5666.67  1.664603E-02
   5672.67  1.655393E-02
   5678.68  1.646251E-02
   5684.69  1.637176E-02
   5690.69  1.628166E-02
   5696.70  1.619223E-02
   5702.70  1.610343E-02
   5708.71  1.601528E-02
   5714.71  1.592776E-02
   5720.72  1.584088E-02
   5726.73  1.575461E-02
   5732.73  1.566897E-02
   5738.74  1.558394E-02
   5744.75  1.549952E-02
   5750.75  1.541571E-02
   5756.76  1.533248E-02
   5762.76  1.524984E-02
   5768.77  1.516779E-02
   5774.77  1.508633E-02
   5780.78  1.500545E-02
   5786.79  1.492513E-02
   5792.79  1.484537E-02
   5798.80  1.476618E-02
   5804.81  1.468753E-02
   5810.81  1.460944E-02
   5816.82  1.453187E-02
   5822.82  1.445484E-02
   5828.83  1.437834E-02
   5834.83  1.430238E-02
   5840.84  1.422694E-02
   5846.85  1.415201E-02
   5852.85  1.407763E-02
   5858.86  1.400373E-02
   5864.87  1.393035E-02
   5870.87  1.385749E-02
   5876.88  1.378511E-02
   5882.88  1.371324E-02
   5888.89  1.364185E-02
   5894.90  1.357096E-02
   5900.90  1.350055E-02
   5906.91  1.343061E-02
   5912.91  1.336115E-02
   5918.92  1.329217E-02
   5924.93  1.322364E-02
   5930.93  1.315559E-02
   5936.94  1.308799E-02
   5942.94  1.302084E-02
   5948.95  1.295415E-02
   5954.96  1.288790E-02
   5960.96  1.282210E-02
   5966.97  1.275674E-02
   5972.97  1.269182E-02
   5978.98  1.262733E-02
   5984.99  1.256325E-02
   5990.99  1.249961E-02
   5997.00  1.243640E-02
   6003.00  1.237359E-02
   6009.01  1.231120E-02
   6015.02  1.224922E-02
   6021.02  1.218763E-02
   6027.03  1.212645E-02
   6033.03  1.206569E-02
   6039.04  1.200533E-02
   6045.05  1.194534E-02
   6051.05  1.188576E-02
   6057.06  1.182656E-02
   6063.06  1.176774E-02
   6069.07  1.170932E-02
   6075.08  1.165127E-02
   6081.08  1.159358E-02
   6087.09  1.153628E-02
   6093.09  1.147936E-02
   6099.10  1.142279E-02
   6105.11  1.136658E-02
   6111.11  1.131074E-02
   6117.12  1.125526E-02
   6123.12  1.120013E-02
   6129.13  1.114536E-02
   6135.14  1.109093E-02
   6141.14  1.103685E-02
   6147.15  1.098312E-02
   6153.15  1.092973E-02
   6159.16  1.087667E-02
   6165.17  1.082394E-02
   6171.17  1.077156E-02
   6177.18  1.071951E-02
   6183.18  1.066778E-02
   6189.19  1.061637E-02
   6195.20  1.056530E-02
   6201.20  1.051454E-02
   6207.21  1.046408E-02
   6213.21  1.041394E-02
   6219.22  1.036412E-02
   6225.23  1.031460E-02
   6231.23  1.026540E-02
   6237.24  1.021650E-02
   6243.24  1.016789E-02
   6249.25  1.011960E-02
   6255.26  1.007161E-02
   6261.26  1.002391E-02
   6267.27  9.976497E-03
   6273.27  9.929383E-03
   6279.28  9.882567E-03
   6285.29  9.836022E-03
   6291.29  9.789774E-03
   6297.30  9.743807E-03
