Si Rho=2.33, Sig=0.nm, P=0., 5.deg
 Photon energy (eV), Reflectivity
   1000.00  9.710877E-04
   1006.01  9.452108E-04
   1012.01  9.201760E-04
   1018.02  8.959702E-04
   1024.02  8.725105E-04
   1030.03  8.498126E-04
   1036.04  8.278419E-04
   1042.04  8.065397E-04
   1048.05  7.859220E-04
   1054.05  7.659320E-04
   1060.06  7.465454E-04
   1066.07  7.277643E-04
   1072.07  7.095362E-04
   1078.08  6.918528E-04
   1084.08  6.747150E-04
   1090.09  6.580507E-04
   1096.10  6.418797E-04
   1102.10  6.262024E-04
   1108.11  6.110394E-04
   1114.11  5.963401E-04
   1120.12  5.820805E-04
   1126.13  5.682460E-04
   1132.13  5.548229E-04
   1138.14  5.417914E-04
   1144.14  5.291309E-04
   1150.15  5.168368E-04
   1156.16  5.048970E-04
   1162.16  4.932865E-04
   1168.17  4.820055E-04
   1174.17  4.710434E-04
   1180.18  4.603799E-04
   1186.19  4.500140E-04
   1192.19  4.399362E-04
   1198.20  4.301272E-04
   1204.20  4.205780E-04
   1210.21  4.112922E-04
   1216.22  4.022535E-04
   1222.22  3.934467E-04
   1228.23  3.848773E-04
   1234.23  3.765372E-04
   1240.24  3.684014E-04
   1246.25  3.604825E-04
   1252.25  3.527731E-04
   1258.26  3.452542E-04
   1264.26  3.379252E-04
   1270.27  3.307892E-04
   1276.28  3.238340E-04
   1282.28  3.170439E-04
   1288.29  3.104281E-04
   1294.29  3.039833E-04
   1300.30  2.976832E-04
   1306.31  2.915390E-04
   1312.31  2.855505E-04
   1318.32  2.797047E-04
   1324.32  2.739903E-04
   1330.33  2.684205E-04
   1336.34  2.629885E-04
   1342.34  2.576720E-04
   1348.35  2.524844E-04
   1354.35  2.474246E-04
   1360.36  2.424823E-04
   1366.37  2.376416E-04
   1372.37  2.329197E-04
   1378.38  2.283119E-04
   1384.38  2.238015E-04
   1390.39  2.193869E-04
   1396.40  2.150781E-04
   1402.40  2.108747E-04
   1408.41  2.067468E-04
   1414.41  2.027134E-04
   1420.42  1.987753E-04
   1426.43  1.949296E-04
   1432.43  1.911469E-04
   1438.44  1.874539E-04
   1444.44  1.838478E-04
   1450.45  1.803188E-04
   1456.46  1.768472E-04
   1462.46  1.734564E-04
   1468.47  1.701461E-04
   1474.47  1.669001E-04
   1480.48  1.637065E-04
   1486.49  1.605866E-04
   1492.49  1.575392E-04
   1498.50  1.545488E-04
   1504.50  1.516029E-04
   1510.51  1.487244E-04
   1516.52  1.459131E-04
   1522.52  1.431512E-04
   1528.53  1.404228E-04
   1534.53  1.377570E-04
   1540.54  1.351519E-04
   1546.55  1.325963E-04
   1552.55  1.300608E-04
   1558.56  1.275838E-04
   1564.56  1.251624E-04
   1570.57  1.227937E-04
   1576.58  1.204292E-04
   1582.58  1.181184E-04
   1588.59  1.158595E-04
   1594.59  1.136526E-04
   1600.60  1.114446E-04
   1606.61  1.092778E-04
   1612.61  1.071615E-04
   1618.62  1.050921E-04
   1624.62  1.030312E-04
   1630.63  1.009859E-04
   1636.64  9.898746E-05
   1642.64  9.703504E-05
   1648.65  9.511178E-05
   1654.65  9.316152E-05
   1660.66  9.125747E-05
   1666.67  8.939808E-05
   1672.67  8.758088E-05
   1678.68  8.572596E-05
   1684.68  8.388577E-05
   1690.69  8.208946E-05
   1696.70  8.033698E-05
   1702.70  7.859232E-05
   1708.71  7.677646E-05
   1714.71  7.500689E-05
   1720.72  7.328050E-05
   1726.73  7.159798E-05
   1732.73  6.981492E-05
   1738.74  6.800144E-05
   1744.74  6.623751E-05
   1750.75  6.452001E-05
   1756.76  6.284802E-05
   1762.76  6.085046E-05
   1768.77  5.890951E-05
   1774.77  5.702782E-05
   1780.78  5.520276E-05
   1786.79  5.320302E-05
   1792.79  5.062565E-05
   1798.80  4.815079E-05
   1804.80  4.577489E-05
   1810.81  4.349453E-05
   1816.82  3.723218E-05
   1822.82  2.420482E-05
   1828.83  1.416011E-05
   1834.83  6.925758E-06
   1840.84  3.731110E-05
   1846.85  3.970067E-05
   1852.85  4.215558E-05
   1858.86  4.467214E-05
   1864.86  4.615263E-05
   1870.87  4.738443E-05
   1876.88  4.861869E-05
   1882.88  4.985465E-05
   1888.89  5.109095E-05
   1894.90  5.160681E-05
   1900.90  5.193911E-05
   1906.91  5.226665E-05
   1912.91  5.258857E-05
   1918.92  5.290463E-05
   1924.93  5.299280E-05
   1930.93  5.298718E-05
   1936.94  5.297925E-05
   1942.94  5.296895E-05
   1948.95  5.295618E-05
   1954.96  5.285633E-05
   1960.96  5.268239E-05
   1966.97  5.250928E-05
   1972.97  5.233514E-05
   1978.98  5.216173E-05
   1984.99  5.196161E-05
   1990.99  5.169570E-05
   1997.00  5.143120E-05
   2003.00  5.116803E-05
   2009.01  5.090673E-05
   2015.02  5.064668E-05
   2021.02  5.033193E-05
   2027.03  5.001566E-05
   2033.03  4.970251E-05
   2039.04  4.939184E-05
   2045.05  4.908418E-05
   2051.05  4.875749E-05
   2057.06  4.841367E-05
   2063.06  4.807294E-05
   2069.07  4.773526E-05
   2075.08  4.740115E-05
   2081.08  4.707056E-05
   2087.09  4.671180E-05
   2093.09  4.635615E-05
   2099.10  4.600525E-05
   2105.10  4.565733E-05
   2111.11  4.531350E-05
   2117.12  4.496359E-05
   2123.12  4.460317E-05
   2129.13  4.424630E-05
   2135.14  4.389402E-05
   2141.14  4.354519E-05
   2147.15  4.320029E-05
   2153.15  4.284609E-05
   2159.16  4.249089E-05
   2165.17  4.213964E-05
   2171.17  4.179173E-05
   2177.18  4.144823E-05
   2183.18  4.110851E-05
   2189.19  4.075958E-05
   2195.20  4.041340E-05
   2201.20  4.007153E-05
   2207.21  3.973287E-05
   2213.21  3.939894E-05
   2219.22  3.906763E-05
   2225.23  3.872945E-05
   2231.23  3.839595E-05
   2237.24  3.806557E-05
   2243.24  3.773876E-05
   2249.25  3.741649E-05
   2255.26  3.709721E-05
   2261.26  3.677262E-05
   2267.27  3.645203E-05
   2273.27  3.613490E-05
   2279.28  3.582217E-05
   2285.29  3.551233E-05
   2291.29  3.520633E-05
   2297.30  3.489705E-05
   2303.30  3.459111E-05
   2309.31  3.428895E-05
   2315.32  3.399003E-05
   2321.32  3.369481E-05
   2327.33  3.340278E-05
   2333.33  3.310901E-05
   2339.34  3.281789E-05
   2345.35  3.252991E-05
   2351.35  3.224503E-05
   2357.36  3.196367E-05
   2363.36  3.168581E-05
   2369.37  3.140808E-05
   2375.38  3.113142E-05
   2381.38  3.085819E-05
   2387.39  3.058792E-05
   2393.39  3.032056E-05
   2399.40  3.005655E-05
   2405.41  2.979492E-05
   2411.41  2.953243E-05
   2417.42  2.927323E-05
   2423.42  2.901684E-05
   2429.43  2.876368E-05
   2435.44  2.851325E-05
   2441.44  2.826599E-05
   2447.45  2.801871E-05
   2453.45  2.777321E-05
   2459.46  2.753082E-05
   2465.47  2.729063E-05
   2471.47  2.705349E-05
   2477.48  2.681939E-05
   2483.48  2.658740E-05
   2489.49  2.635533E-05
   2495.50  2.612579E-05
   2501.50  2.589919E-05
   2507.51  2.567467E-05
   2513.51  2.545304E-05
   2519.52  2.523384E-05
   2525.53  2.501622E-05
   2531.53  2.479931E-05
   2537.54  2.458522E-05
   2543.54  2.437349E-05
   2549.55  2.416370E-05
   2555.56  2.395666E-05
   2561.56  2.375192E-05
   2567.57  2.354780E-05
   2573.57  2.334512E-05
   2579.58  2.314511E-05
   2585.59  2.294736E-05
   2591.59  2.275181E-05
   2597.60  2.255807E-05
   2603.60  2.236651E-05
   2609.61  2.217590E-05
   2615.62  2.198666E-05
   2621.62  2.179995E-05
   2627.63  2.161497E-05
   2633.63  2.143169E-05
   2639.64  2.125090E-05
   2645.65  2.107217E-05
   2651.65  2.089393E-05
   2657.66  2.071734E-05
   2663.66  2.054279E-05
   2669.67  2.037023E-05
   2675.68  2.019928E-05
   2681.68  2.003031E-05
   2687.69  1.986292E-05
   2693.69  1.969709E-05
   2699.70  1.953204E-05
   2705.71  1.936892E-05
   2711.71  1.920769E-05
   2717.72  1.904762E-05
   2723.72  1.888980E-05
   2729.73  1.873383E-05
   2735.74  1.857860E-05
   2741.74  1.842448E-05
   2747.75  1.827218E-05
   2753.75  1.812169E-05
   2759.76  1.797227E-05
   2765.77  1.782463E-05
   2771.77  1.767875E-05
   2777.78  1.753427E-05
   2783.78  1.739011E-05
   2789.79  1.724767E-05
   2795.80  1.710661E-05
   2801.80  1.696725E-05
   2807.81  1.682924E-05
   2813.81  1.669255E-05
   2819.82  1.655719E-05
   2825.83  1.642314E-05
   2831.83  1.629003E-05
   2837.84  1.615822E-05
   2843.84  1.602770E-05
   2849.85  1.589878E-05
   2855.86  1.577079E-05
   2861.86  1.564439E-05
   2867.87  1.551956E-05
   2873.87  1.539496E-05
   2879.88  1.527158E-05
   2885.89  1.514942E-05
   2891.89  1.502880E-05
   2897.90  1.490904E-05
   2903.90  1.479080E-05
   2909.91  1.467374E-05
   2915.92  1.455751E-05
   2921.92  1.444212E-05
   2927.93  1.432788E-05
   2933.93  1.421479E-05
   2939.94  1.410252E-05
   2945.95  1.399169E-05
   2951.95  1.388198E-05
   2957.96  1.377338E-05
   2963.96  1.366557E-05
   2969.97  1.355885E-05
   2975.98  1.345290E-05
   2981.98  1.334803E-05
   2987.99  1.324424E-05
   2993.99  1.314121E-05
   3000.00  1.303953E-05
   3006.01  1.293891E-05
   3012.01  1.283902E-05
   3018.02  1.273985E-05
   3024.02  1.264141E-05
   3030.03  1.254399E-05
   3036.04  1.244758E-05
   3042.04  1.235218E-05
   3048.05  1.225778E-05
   3054.05  1.216437E-05
   3060.06  1.207164E-05
   3066.07  1.197930E-05
   3072.07  1.188823E-05
   3078.08  1.179754E-05
   3084.08  1.170838E-05
   3090.09  1.161961E-05
   3096.10  1.153177E-05
   3102.10  1.144488E-05
   3108.11  1.135863E-05
   3114.11  1.127302E-05
   3120.12  1.118833E-05
   3126.13  1.110427E-05
   3132.13  1.102112E-05
   3138.14  1.093860E-05
   3144.14  1.085696E-05
   3150.15  1.077622E-05
   3156.16  1.069609E-05
   3162.16  1.061655E-05
   3168.17  1.053762E-05
   3174.17  1.045955E-05
   3180.18  1.038206E-05
   3186.19  1.030517E-05
   3192.19  1.022940E-05
   3198.20  1.015420E-05
   3204.20  1.007957E-05
   3210.21  1.000551E-05
   3216.22  9.932275E-06
   3222.22  9.859334E-06
   3228.23  9.787478E-06
   3234.23  9.715909E-06
   3240.24  9.645151E-06
   3246.25  9.575197E-06
   3252.25  9.505779E-06
   3258.26  9.436894E-06
   3264.26  9.368539E-06
   3270.27  9.300967E-06
   3276.28  9.233662E-06
   3282.28  9.167387E-06
   3288.29  9.101369E-06
   3294.29  9.036122E-06
   3300.30  8.971379E-06
   3306.31  8.907140E-06
   3312.31  8.843654E-06
   3318.32  8.780412E-06
   3324.32  8.717910E-06
   3330.33  8.655648E-06
   3336.34  8.594374E-06
   3342.34  8.533333E-06
   3348.35  8.473023E-06
   3354.35  8.412936E-06
   3360.36  8.353816E-06
   3366.37  8.294921E-06
   3372.37  8.236490E-06
   3378.38  8.178523E-06
   3384.38  8.121258E-06
   3390.39  8.064453E-06
   3396.40  8.007856E-06
   3402.40  7.951953E-06
   3408.41  7.896740E-06
   3414.41  7.841726E-06
   3420.42  7.787394E-06
   3426.43  7.733262E-06
   3432.43  7.679567E-06
   3438.44  7.626539E-06
   3444.44  7.573707E-06
   3450.45  7.521534E-06
   3456.46  7.469790E-06
   3462.46  7.418464E-06
   3468.47  7.367557E-06
   3474.47  7.317067E-06
   3480.48  7.266987E-06
   3486.49  7.217320E-06
   3492.49  7.168060E-06
   3498.50  7.119205E-06
   3504.50  7.070755E-06
   3510.51  7.022705E-06
   3516.52  6.975278E-06
   3522.52  6.928019E-06
   3528.53  6.881155E-06
   3534.53  6.834902E-06
   3540.54  6.788816E-06
   3546.55  6.742893E-06
   3552.55  6.697794E-06
   3558.56  6.652639E-06
   3564.56  6.608297E-06
   3570.57  6.564114E-06
   3576.58  6.520304E-06
   3582.58  6.476866E-06
   3588.59  6.433795E-06
   3594.59  6.391092E-06
   3600.60  6.348535E-06
   3606.61  6.306345E-06
   3612.61  6.264725E-06
   3618.62  6.223253E-06
   3624.62  6.182138E-06
   3630.63  6.141374E-06
   3636.64  6.101174E-06
   3642.64  6.061112E-06
   3648.65  6.021399E-06
   3654.65  5.981823E-06
   3660.66  5.942797E-06
   3666.67  5.903906E-06
   3672.67  5.865560E-06
   3678.68  5.827347E-06
   3684.68  5.789469E-06
   3690.69  5.751924E-06
   3696.70  5.714509E-06
   3702.70  5.677625E-06
   3708.71  5.641069E-06
   3714.71  5.604636E-06
   3720.72  5.568529E-06
   3726.73  5.532744E-06
   3732.73  5.497078E-06
   3738.74  5.461931E-06
   3744.74  5.426904E-06
   3750.75  5.392190E-06
   3756.76  5.357791E-06
   3762.76  5.323703E-06
   3768.77  5.289728E-06
   3774.77  5.256062E-06
   3780.78  5.222702E-06
   3786.79  5.189645E-06
   3792.79  5.156700E-06
   3798.80  5.124251E-06
   3804.80  5.091906E-06
   3810.81  5.059861E-06
   3816.82  5.028111E-06
   3822.82  4.996467E-06
   3828.83  4.965115E-06
   3834.83  4.933867E-06
   3840.84  4.903099E-06
   3846.85  4.872430E-06
   3852.85  4.842049E-06
   3858.86  4.811953E-06
   3864.86  4.781957E-06
   3870.87  4.752242E-06
   3876.88  4.722809E-06
   3882.88  4.693471E-06
   3888.89  4.664596E-06
   3894.90  4.635813E-06
   3900.90  4.607122E-06
   3906.91  4.578888E-06
   3912.91  4.550563E-06
   3918.92  4.522692E-06
   3924.93  4.495090E-06
   3930.93  4.467575E-06
   3936.94  4.440147E-06
   3942.94  4.413166E-06
   3948.95  4.386271E-06
   3954.96  4.359638E-06
   3960.96  4.333089E-06
   3966.97  4.306800E-06
   3972.97  4.280594E-06
   3978.98  4.254648E-06
   3984.99  4.229132E-06
   3990.99  4.203522E-06
   3997.00  4.178167E-06
   4003.00  4.153064E-06
   4009.01  4.128040E-06
   4015.02  4.103267E-06
   4021.02  4.078742E-06
   4027.03  4.054294E-06
   4033.03  4.030092E-06
   4039.04  4.006135E-06
   4045.05  3.982253E-06
   4051.05  3.958447E-06
   4057.06  3.935048E-06
   4063.06  3.911556E-06
   4069.07  3.888471E-06
   4075.08  3.865456E-06
   4081.08  3.842679E-06
   4087.09  3.819972E-06
   4093.09  3.797500E-06
   4099.10  3.775096E-06
   4105.11  3.752925E-06
   4111.11  3.730823E-06
   4117.12  3.708951E-06
   4123.12  3.687308E-06
   4129.13  3.665733E-06
   4135.14  3.644384E-06
   4141.14  3.623100E-06
   4147.15  3.602203E-06
   4153.15  3.581207E-06
   4159.16  3.560436E-06
   4165.17  3.539726E-06
   4171.17  3.519239E-06
   4177.18  3.498972E-06
   4183.18  3.478766E-06
   4189.19  3.458620E-06
   4195.20  3.438692E-06
   4201.20  3.418982E-06
   4207.21  3.399328E-06
   4213.21  3.379890E-06
   4219.22  3.360509E-06
   4225.23  3.341341E-06
   4231.23  3.322229E-06
   4237.24  3.303329E-06
   4243.24  3.284484E-06
   4249.25  3.265849E-06
   4255.26  3.247268E-06
   4261.26  3.228894E-06
   4267.27  3.210574E-06
   4273.27  3.192461E-06
   4279.28  3.174398E-06
   4285.29  3.156541E-06
   4291.29  3.138735E-06
   4297.30  3.121132E-06
   4303.30  3.103579E-06
   4309.31  3.086226E-06
   4315.32  3.068774E-06
   4321.32  3.051671E-06
   4327.33  3.034616E-06
   4333.33  3.017759E-06
   4339.34  3.000950E-06
   4345.35  2.984188E-06
   4351.35  2.967622E-06
   4357.36  2.951104E-06
   4363.36  2.934778E-06
   4369.37  2.918499E-06
   4375.38  2.902411E-06
   4381.38  2.886369E-06
   4387.39  2.870516E-06
   4393.39  2.854709E-06
   4399.40  2.838947E-06
   4405.41  2.823371E-06
   4411.41  2.807840E-06
   4417.42  2.792495E-06
   4423.42  2.777194E-06
   4429.43  2.762076E-06
   4435.44  2.747001E-06
   4441.44  2.731969E-06
   4447.45  2.717118E-06
   4453.45  2.702309E-06
   4459.46  2.687681E-06
   4465.47  2.673095E-06
   4471.47  2.658687E-06
   4477.48  2.644319E-06
   4483.48  2.629990E-06
   4489.49  2.615840E-06
   4495.50  2.601728E-06
   4501.50  2.587793E-06
   4507.51  2.573897E-06
   4513.51  2.560037E-06
   4519.52  2.546353E-06
   4525.53  2.532706E-06
   4531.53  2.519231E-06
   4537.54  2.505792E-06
   4543.54  2.492391E-06
   4549.55  2.479161E-06
   4555.56  2.465966E-06
   4561.56  2.452942E-06
   4567.57  2.439952E-06
   4573.57  2.426865E-06
   4579.58  2.414078E-06
   4585.59  2.401326E-06
   4591.59  2.388608E-06
   4597.60  2.376056E-06
   4603.60  2.363538E-06
   4609.61  2.351184E-06
   4615.62  2.338864E-06
   4621.62  2.326446E-06
   4627.63  2.314450E-06
   4633.63  2.302228E-06
   4639.64  2.290168E-06
   4645.65  2.278269E-06
   4651.65  2.266401E-06
   4657.66  2.254564E-06
   4663.66  2.242887E-06
   4669.67  2.231241E-06
   4675.68  2.219626E-06
   4681.68  2.208295E-06
   4687.69  2.196866E-06
   4693.69  2.185469E-06
   4699.70  2.174227E-06
   4705.71  2.162890E-06
   4711.71  2.151832E-06
   4717.72  2.140803E-06
   4723.72  2.129804E-06
   4729.73  2.118956E-06
   4735.74  2.108014E-06
   4741.74  2.097224E-06
   4747.75  2.086584E-06
   4753.75  2.075850E-06
   4759.76  2.065389E-06
   4765.77  2.054833E-06
   4771.77  2.044425E-06
   4777.78  2.034045E-06
   4783.78  2.023692E-06
   4789.79  2.013486E-06
   4795.80  2.003307E-06
   4801.80  1.993154E-06
   4807.81  1.983147E-06
   4813.81  1.973046E-06
   4819.82  1.963210E-06
   4825.83  1.953280E-06
   4831.83  1.943494E-06
   4837.84  1.933734E-06
   4843.84  1.924116E-06
   4849.85  1.914405E-06
   4855.86  1.904837E-06
   4861.86  1.895409E-06
   4867.87  1.885889E-06
   4873.87  1.876510E-06
   4879.88  1.867155E-06
   4885.89  1.857940E-06
   4891.89  1.848631E-06
   4897.90  1.839462E-06
   4903.90  1.830432E-06
   4909.91  1.821424E-06
   4915.92  1.812438E-06
   4921.92  1.803476E-06
   4927.93  1.794650E-06
   4933.93  1.785732E-06
   4939.94  1.776949E-06
   4945.95  1.768303E-06
   4951.95  1.759678E-06
   4957.96  1.750962E-06
   4963.96  1.742380E-06
   4969.97  1.733931E-06
   4975.98  1.725503E-06
   4981.98  1.717096E-06
   4987.99  1.708711E-06
   4993.99  1.700456E-06
   5000.00  1.692222E-06
   5006.01  1.683898E-06
   5012.01  1.675705E-06
   5018.02  1.667643E-06
   5024.02  1.659599E-06
   5030.03  1.651576E-06
   5036.04  1.643681E-06
   5042.04  1.635806E-06
   5048.05  1.627842E-06
   5054.05  1.620005E-06
   5060.06  1.612295E-06
   5066.07  1.604497E-06
   5072.07  1.596932E-06
   5078.08  1.589172E-06
   5084.08  1.581645E-06
   5090.09  1.574135E-06
   5096.10  1.566644E-06
   5102.10  1.559065E-06
   5108.11  1.551716E-06
   5114.11  1.544385E-06
   5120.12  1.537071E-06
   5126.13  1.529776E-06
   5132.13  1.522498E-06
   5138.14  1.515342E-06
   5144.14  1.508203E-06
   5150.15  1.500977E-06
   5156.16  1.493977E-06
   5162.16  1.486890E-06
   5168.17  1.479922E-06
   5174.17  1.473075E-06
   5180.18  1.466141E-06
   5186.19  1.459326E-06
   5192.19  1.452426E-06
   5198.20  1.445644E-06
   5204.20  1.438878E-06
   5210.21  1.432229E-06
   5216.22  1.425496E-06
   5222.22  1.418879E-06
   5228.23  1.412278E-06
   5234.23  1.405793E-06
   5240.24  1.399223E-06
   5246.25  1.392769E-06
   5252.25  1.386330E-06
   5258.26  1.379906E-06
   5264.26  1.373498E-06
   5270.27  1.367203E-06
   5276.28  1.360825E-06
   5282.28  1.354659E-06
   5288.29  1.348409E-06
   5294.29  1.342272E-06
   5300.30  1.336051E-06
   5306.31  1.329942E-06
   5312.31  1.323848E-06
   5318.32  1.317865E-06
   5324.32  1.311799E-06
   5330.33  1.305845E-06
   5336.34  1.299903E-06
   5342.34  1.293976E-06
   5348.35  1.288063E-06
   5354.35  1.282259E-06
   5360.36  1.276469E-06
   5366.37  1.270692E-06
   5372.37  1.264928E-06
   5378.38  1.259177E-06
   5384.38  1.253535E-06
   5390.39  1.247906E-06
   5396.40  1.242195E-06
   5402.40  1.236686E-06
   5408.41  1.231095E-06
   5414.41  1.225612E-06
   5420.42  1.220047E-06
   5426.43  1.214682E-06
   5432.43  1.209235E-06
   5438.44  1.203801E-06
   5444.44  1.198379E-06
   5450.45  1.193063E-06
   5456.46  1.187758E-06
   5462.46  1.182466E-06
   5468.47  1.177277E-06
   5474.47  1.172009E-06
   5480.48  1.166843E-06
   5486.49  1.161690E-06
   5492.49  1.156548E-06
   5498.50  1.151418E-06
   5504.50  1.146299E-06
   5510.51  1.141191E-06
   5516.52  1.136277E-06
   5522.52  1.131192E-06
   5528.53  1.126299E-06
   5534.53  1.121237E-06
   5540.54  1.116367E-06
   5546.55  1.111506E-06
   5552.55  1.106657E-06
   5558.56  1.101818E-06
   5564.56  1.096991E-06
   5570.57  1.092174E-06
   5576.58  1.087367E-06
   5582.58  1.082660E-06
   5588.59  1.077963E-06
   5594.59  1.073276E-06
   5600.60  1.068688E-06
   5606.61  1.064022E-06
   5612.61  1.059366E-06
   5618.62  1.054808E-06
   5624.62  1.050259E-06
   5630.63  1.045721E-06
   5636.64  1.041192E-06
   5642.64  1.036674E-06
   5648.65  1.032252E-06
   5654.65  1.027753E-06
   5660.66  1.023350E-06
   5666.67  1.018957E-06
   5672.67  1.014659E-06
   5678.68  1.010370E-06
   5684.69  1.006005E-06
   5690.69  1.001735E-06
   5696.70  9.974733E-07
   5702.70  9.932213E-07
   5708.71  9.889785E-07
   5714.71  9.847448E-07
   5720.72  9.806048E-07
   5726.73  9.763891E-07
   5732.73  9.722667E-07
   5738.74  9.681529E-07
   5744.75  9.640480E-07
   5750.75  9.599519E-07
   5756.76  9.559476E-07
   5762.76  9.518692E-07
   5768.77  9.478823E-07
   5774.77  9.439035E-07
   5780.78  9.399334E-07
